# OpenSignals Text File Format. Version 1
# {"00:07:80:0F:2F:AD": {"position": 0, "device": "biosignalsplux", "device name": "00:07:80:0F:2F:AD", "device connection": "BTH00:07:80:0F:2F:AD", "sampling rate": 1000, "resolution": [16, 16, 16], "firmware version": 775, "comments": "", "keywords": "", "mode": 0, "sync interval": 2, "date": "2021-10-20", "time": "13:7:16.751", "channels": [1, 2, 3], "sensor": ["XYZ", "XYZ", "XYZ"], "label": ["CH1", "CH2", "CH3"], "column": ["nSeq", "DI", "CH1", "CH2", "CH3"], "special": [{"SpO2": [80, 40, 5, 4, 3, 3]}, {"SpO2": [80, 40, 5, 4, 3, 3]}, {"SpO2": [80, 40, 5, 4, 3, 3]}, {"SpO2": [80, 40, 5, 4, 3, 3]}, {"SpO2": [80, 40, 5, 4, 3, 3]}, {"SpO2": [80, 40, 5, 4, 3, 3]}, {"SpO2": [80, 40, 5, 4, 3, 3]}, {"SpO2": [80, 40, 5, 4, 3, 3]}], "digital IO": [0, 1], "sleeve color": ["white", "white", "white"], "convertedValues": 0}}
# EndOfHeader
0	0	33224	32628	38424	
1	0	33212	32616	38448	
2	0	33212	32610	38452	
3	0	33224	32592	38456	
4	0	33228	32596	38444	
5	0	33224	32612	38428	
6	0	33220	32612	38436	
7	0	33228	32612	38420	
8	0	33240	32624	38420	
9	0	33240	32620	38436	
10	0	33240	32620	38440	
11	0	33232	32624	38440	
12	0	33240	32624	38424	
13	0	33248	32636	38420	
14	0	33234	32648	38440	
15	0	33256	32645	38436	
16	0	33256	32652	38420	
17	0	33244	32668	38420	
18	0	33240	32666	38388	
19	0	33252	32664	38404	
20	0	33236	32668	38404	
21	0	33242	32644	38404	
22	0	33232	32648	38404	
23	0	33236	32644	38388	
24	0	33224	32636	38388	
25	0	33228	32660	38404	
26	0	33232	32664	38392	
27	0	33232	32660	38392	
28	0	33236	32668	38380	
29	0	33224	32684	38388	
30	0	33234	32676	38400	
31	0	33240	32672	38408	
32	0	33232	32680	38420	
33	0	33240	32656	38420	
34	0	33232	32664	38432	
35	0	33228	32668	38440	
36	0	33244	32660	38452	
37	0	33248	32660	38440	
38	0	33248	32656	38440	
39	0	33232	32640	38452	
40	0	33244	32640	38452	
41	0	33232	32636	38468	
42	0	33228	32632	38452	
43	0	33232	32632	38428	
44	0	33232	32644	38452	
45	0	33236	32644	38492	
46	0	33236	32640	38500	
47	0	33228	32648	38504	
48	0	33228	32636	38520	
49	0	33224	32656	38512	
50	0	33240	32648	38504	
51	0	33228	32648	38488	
52	0	33228	32644	38496	
53	0	33220	32652	38496	
54	0	33248	32656	38512	
55	0	33240	32656	38520	
56	0	33232	32668	38500	
57	0	33236	32680	38504	
58	0	33224	32660	38496	
59	0	33252	32648	38472	
60	0	33256	32652	38472	
61	0	33248	32664	38464	
62	0	33236	32664	38456	
63	0	33236	32652	38448	
64	0	33220	32664	38452	
65	0	33208	32676	38472	
66	0	33216	32668	38448	
67	0	33216	32680	38456	
68	0	33232	32664	38448	
69	0	33216	32680	38468	
70	0	33224	32678	38456	
71	0	33208	32688	38472	
72	0	33212	32708	38472	
73	0	33216	32712	38444	
74	0	33232	32724	38444	
75	0	33240	32732	38468	
76	0	33224	32748	38468	
77	0	33240	32740	38452	
78	0	33232	32744	38448	
79	0	33212	32756	38436	
80	0	33204	32728	38404	
81	0	33200	32736	38384	
82	0	33192	32720	38364	
83	0	33200	32720	38360	
84	0	33200	32716	38372	
85	0	33200	32722	38388	
86	0	33200	32720	38406	
87	0	33200	32724	38392	
88	0	33204	32740	38372	
89	0	33208	32744	38392	
90	0	33200	32748	38412	
91	0	33196	32764	38428	
92	0	33208	32760	38440	
93	0	33220	32764	38448	
94	0	33212	32796	38448	
95	0	33204	32800	38448	
96	0	33204	32796	38452	
97	0	33204	32796	38474	
98	0	33196	32788	38453	
99	0	33204	32776	38480	
100	0	33196	32768	38480	
101	0	33192	32760	38464	
102	0	33184	32764	38458	
103	0	33176	32764	38464	
104	0	33180	32772	38448	
105	0	33196	32760	38466	
106	0	33176	32768	38492	
107	0	33176	32760	38472	
108	0	33176	32748	38444	
109	0	33168	32744	38444	
110	0	33160	32736	38424	
111	0	33176	32752	38416	
112	0	33176	32760	38384	
113	0	33188	32777	38384	
114	0	33172	32780	38400	
115	0	33192	32770	38404	
116	0	33196	32768	38400	
117	0	33192	32776	38400	
118	0	33208	32780	38372	
119	0	33208	32775	38368	
120	0	33192	32776	38368	
121	0	33200	32770	38352	
122	0	33200	32752	38364	
123	0	33192	32756	38340	
124	0	33212	32756	38320	
125	0	33204	32752	38320	
126	0	33220	32744	38320	
127	0	33216	32732	38352	
128	0	33212	32736	38352	
129	0	33224	32728	38356	
130	0	33226	32732	38364	
131	0	33228	32724	38368	
132	0	33232	32724	38368	
133	0	33224	32728	38368	
134	0	33224	32748	38384	
135	0	33232	32740	38385	
136	0	33228	32752	38392	
137	0	33232	32748	38388	
138	0	33216	32756	38400	
139	0	33216	32740	38364	
140	0	33224	32736	38364	
141	0	33216	32720	38340	
142	0	33216	32704	38348	
143	0	33200	32712	38368	
144	0	33216	32708	38360	
145	0	33196	32704	38372	
146	0	33196	32696	38360	
147	0	33196	32704	38364	
148	0	33208	32712	38376	
149	0	33208	32716	38372	
150	0	33208	32704	38368	
151	0	33208	32728	38376	
152	0	33216	32736	38368	
153	0	33200	32728	38344	
154	0	33208	32716	38336	
155	0	33224	32728	38356	
156	0	33232	32720	38352	
157	0	33232	32736	38360	
158	0	33217	32732	38372	
159	0	33224	32736	38352	
160	0	33244	32718	38360	
161	0	33228	32712	38360	
162	0	33228	32708	38362	
163	0	33220	32700	38352	
164	0	33216	32704	38352	
165	0	33224	32696	38356	
166	0	33220	32704	38376	
167	0	33232	32688	38384	
168	0	33236	32688	38384	
169	0	33224	32684	38376	
170	0	33240	32680	38376	
171	0	33236	32676	38380	
172	0	33236	32684	38380	
173	0	33244	32692	38380	
174	0	33240	32684	38376	
175	0	33244	32692	38380	
176	0	33248	32696	38392	
177	0	33232	32704	38388	
178	0	33228	32700	38388	
179	0	33228	32704	38392	
180	0	33224	32692	38388	
181	0	33224	32704	38376	
182	0	33220	32720	38360	
183	0	33216	32704	38360	
184	0	33216	32700	38348	
185	0	33216	32704	38380	
186	0	33212	32708	38372	
187	0	33208	32712	38360	
188	0	33224	32708	38352	
189	0	33220	32724	38340	
190	0	33216	32708	38336	
191	0	33216	32708	38340	
192	0	33212	32724	38336	
193	0	33216	32752	38324	
194	0	33232	32742	38328	
195	0	33232	32760	38354	
196	0	33224	32764	38352	
197	0	33236	32776	38348	
198	0	33224	32768	38348	
199	0	33216	32796	38356	
200	0	33208	32788	38352	
201	0	33216	32776	38364	
202	0	33212	32764	38380	
203	0	33212	32772	38380	
204	0	33208	32768	38372	
205	0	33200	32780	38364	
206	0	33204	32780	38384	
207	0	33208	32784	38408	
208	0	33200	32774	38428	
209	0	33196	32772	38420	
210	0	33208	32772	38428	
211	0	33204	32768	38424	
212	0	33200	32764	38424	
213	0	33202	32756	38428	
214	0	33208	32748	38476	
215	0	33236	32752	38452	
216	0	33232	32756	38448	
217	0	33232	32756	38464	
218	0	33228	32732	38452	
219	0	33220	32724	38440	
220	0	33222	32724	38424	
221	0	33212	32740	38424	
222	0	33208	32716	38416	
223	0	33201	32724	38416	
224	0	33208	32740	38416	
225	0	33196	32740	38424	
226	0	33216	32736	38424	
227	0	33212	32736	38420	
228	0	33216	32740	38428	
229	0	33224	32728	38444	
230	0	33224	32732	38456	
231	0	33208	32732	38464	
232	0	33208	32740	38464	
233	0	33220	32748	38472	
234	0	33216	32752	38452	
235	0	33228	32756	38476	
236	0	33228	32760	38496	
237	0	33228	32770	38500	
238	0	33228	32774	38500	
239	0	33218	32762	38484	
240	0	33216	32772	38476	
241	0	33224	32788	38464	
242	0	33212	32776	38456	
243	0	33212	32762	38472	
244	0	33216	32780	38480	
245	0	33216	32768	38488	
246	0	33208	32762	38472	
247	0	33204	32764	38468	
248	0	33208	32768	38440	
249	0	33216	32760	38432	
250	0	33216	32760	38436	
251	0	33220	32772	38432	
252	0	33208	32772	38452	
253	0	33200	32760	38444	
254	0	33208	32760	38440	
255	0	33224	32762	38424	
256	0	33220	32768	38420	
257	0	33216	32772	38436	
258	0	33236	32772	38412	
259	0	33228	32772	38404	
260	0	33216	32780	38410	
261	0	33216	32764	38412	
262	0	33212	32772	38412	
263	0	33210	32760	38388	
264	0	33220	32740	38376	
265	0	33220	32728	38392	
266	0	33228	32728	38388	
267	0	33224	32720	38384	
268	0	33240	32720	38360	
269	0	33244	32716	38380	
270	0	33244	32708	38388	
271	0	33236	32716	38416	
272	0	33232	32700	38440	
273	0	33232	32716	38424	
274	0	33236	32716	38452	
275	0	33224	32728	38440	
276	0	33228	32728	38464	
277	0	33233	32736	38464	
278	0	33248	32716	38452	
279	0	33240	32708	38452	
280	0	33248	32712	38436	
281	0	33248	32704	38444	
282	0	33248	32692	38448	
283	0	33252	32688	38472	
284	0	33240	32708	38464	
285	0	33236	32720	38464	
286	0	33228	32704	38448	
287	0	33244	32696	38468	
288	0	33248	32696	38444	
289	0	33256	32704	38458	
290	0	33244	32718	38428	
291	0	33240	32720	38424	
292	0	33236	32732	38424	
293	0	33240	32712	38426	
294	0	33244	32716	38424	
295	0	33248	32716	38432	
296	0	33248	32712	38444	
297	0	33244	32712	38436	
298	0	33240	32708	38432	
299	0	33236	32704	38412	
300	0	33248	32696	38420	
301	0	33248	32696	38428	
302	0	33232	32684	38396	
303	0	33236	32688	38388	
304	0	33228	32704	38392	
305	0	33236	32700	38384	
306	0	33240	32708	38392	
307	0	33248	32724	38400	
308	0	33236	32712	38400	
309	0	33228	32712	38404	
310	0	33224	32712	38416	
311	0	33228	32712	38407	
312	0	33242	32704	38392	
313	0	33248	32716	38400	
314	0	33236	32708	38400	
315	0	33240	32720	38396	
316	0	33248	32728	38409	
317	0	33256	32728	38428	
318	0	33248	32704	38412	
319	0	33252	32696	38406	
320	0	33248	32704	38372	
321	0	33232	32700	38348	
322	0	33220	32704	38360	
323	0	33216	32712	38352	
324	0	33232	32708	38348	
325	0	33232	32724	38356	
326	0	33236	32720	38404	
327	0	33240	32708	38360	
328	0	33232	32720	38360	
329	0	33236	32716	38348	
330	0	33236	32716	38352	
331	0	33240	32728	38352	
332	0	33240	32728	38356	
333	0	33244	32740	38388	
334	0	33236	32734	38368	
335	0	33240	32748	38368	
336	0	33256	32748	38368	
337	0	33248	32744	38372	
338	0	33248	32736	38400	
339	0	33244	32740	38382	
340	0	33240	32744	38376	
341	0	33232	32744	38368	
342	0	33236	32720	38332	
343	0	33228	32724	38360	
344	0	33228	32720	38352	
345	0	33244	32732	38352	
346	0	33240	32736	38360	
347	0	33240	32736	38360	
348	0	33236	32736	38356	
349	0	33236	32736	38368	
350	0	33236	32732	38372	
351	0	33244	32724	38372	
352	0	33224	32728	38360	
353	0	33236	32728	38364	
354	0	33240	32724	38380	
355	0	33248	32734	38404	
356	0	33250	32724	38392	
357	0	33252	32732	38392	
358	0	33236	32724	38380	
359	0	33232	32736	38356	
360	0	33248	32732	38368	
361	0	33240	32704	38368	
362	0	33248	32704	38372	
363	0	33236	32688	38352	
364	0	33236	32680	38344	
365	0	33244	32688	38352	
366	0	33232	32688	38348	
367	0	33232	32684	38372	
368	0	33248	32688	38384	
369	0	33248	32680	38380	
370	0	33236	32700	38384	
371	0	33236	32712	38376	
372	0	33248	32704	38392	
373	0	33256	32708	38420	
374	0	33256	32704	38408	
375	0	33264	32708	38412	
376	0	33272	32724	38424	
377	0	33256	32724	38432	
378	0	33260	32724	38432	
379	0	33256	32728	38424	
380	0	33240	32728	38440	
381	0	33240	32722	38444	
382	0	33232	32732	38436	
383	0	33224	32728	38448	
384	0	33216	32730	38436	
385	0	33224	32732	38456	
386	0	33224	32724	38436	
387	0	33224	32729	38432	
388	0	33232	32744	38444	
389	0	33216	32728	38448	
390	0	33208	32732	38424	
391	0	33224	32728	38420	
392	0	33236	32732	38424	
393	0	33228	32736	38436	
394	0	33232	32728	38424	
395	0	33240	32728	38416	
396	0	33252	32732	38424	
397	0	33252	32732	38424	
398	0	33256	32732	38448	
399	0	33248	32732	38424	
400	0	33240	32730	38406	
401	0	33232	32728	38400	
402	0	33220	32720	38376	
403	0	33224	32716	38372	
404	0	33224	32708	38388	
405	0	33232	32708	38384	
406	0	33224	32712	38392	
407	0	33228	32712	38384	
408	0	33232	32720	38400	
409	0	33216	32712	38386	
410	0	33228	32720	38372	
411	0	33236	32712	38388	
412	0	33236	32712	38384	
413	0	33244	32708	38388	
414	0	33232	32712	38368	
415	0	33248	32704	38376	
416	0	33256	32696	38380	
417	0	33256	32692	38388	
418	0	33240	32688	38384	
419	0	33232	32692	38372	
420	0	33236	32708	38380	
421	0	33224	32692	38384	
422	0	33232	32688	38364	
423	0	33224	32684	38384	
424	0	33220	32692	38404	
425	0	33228	32688	38416	
426	0	33244	32688	38368	
427	0	33252	32700	38388	
428	0	33256	32696	38396	
429	0	33256	32712	38392	
430	0	33256	32728	38396	
431	0	33232	32720	38392	
432	0	33228	32720	38388	
433	0	33224	32724	38408	
434	0	33232	32712	38396	
435	0	33240	32716	38406	
436	0	33224	32712	38412	
437	0	33224	32720	38408	
438	0	33232	32720	38406	
439	0	33224	32728	38396	
440	0	33220	32726	38404	
441	0	33220	32712	38408	
442	0	33216	32704	38392	
443	0	33212	32704	38372	
444	0	33220	32712	38384	
445	0	33232	32704	38372	
446	0	33232	32724	38384	
447	0	33228	32732	38372	
448	0	33232	32720	38368	
449	0	33232	32712	38364	
450	0	33232	32728	38392	
451	0	33220	32728	38396	
452	0	33224	32721	38394	
453	0	33224	32748	38384	
454	0	33232	32760	38368	
455	0	33240	32768	38392	
456	0	33244	32768	38376	
457	0	33236	32764	38368	
458	0	33232	32772	38388	
459	0	33228	32776	38380	
460	0	33236	32764	38384	
461	0	33224	32768	38392	
462	0	33208	32756	38392	
463	0	33216	32748	38360	
464	0	33216	32734	38376	
465	0	33212	32752	38388	
466	0	33216	32748	38400	
467	0	33228	32752	38408	
468	0	33220	32756	38420	
469	0	33224	32744	38406	
470	0	33216	32740	38424	
471	0	33220	32748	38400	
472	0	33216	32744	38380	
473	0	33228	32756	38384	
474	0	33232	32756	38400	
475	0	33244	32758	38406	
476	0	33240	32768	38404	
477	0	33248	32756	38404	
478	0	33240	32772	38432	
479	0	33228	32756	38424	
480	0	33228	32752	38424	
481	0	33216	32752	38410	
482	0	33208	32748	38380	
483	0	33216	32744	38384	
484	0	33212	32728	38380	
485	0	33216	32740	38384	
486	0	33208	32736	38396	
487	0	33208	32744	38396	
488	0	33216	32756	38406	
489	0	33224	32748	38396	
490	0	33216	32756	38400	
491	0	33216	32768	38424	
492	0	33204	32756	38408	
493	0	33200	32768	38440	
494	0	33208	32768	38432	
495	0	33208	32756	38460	
496	0	33232	32760	38444	
497	0	33224	32764	38424	
498	0	33230	32752	38412	
499	0	33224	32760	38424	
500	0	33208	32764	38432	
501	0	33200	32756	38416	
502	0	33188	32764	38432	
503	0	33194	32762	38452	
504	0	33200	32768	38452	
505	0	33188	32768	38448	
506	0	33192	32775	38440	
507	0	33196	32780	38436	
508	0	33188	32772	38432	
509	0	33196	32788	38432	
510	0	33200	32776	38440	
511	0	33204	32792	38452	
512	0	33216	32794	38436	
513	0	33212	32784	38432	
514	0	33220	32788	38432	
515	0	33228	32792	38444	
516	0	33216	32792	38424	
517	0	33220	32796	38436	
518	0	33216	32784	38416	
519	0	33216	32784	38404	
520	0	33212	32772	38400	
521	0	33208	32756	38380	
522	0	33200	32756	38344	
523	0	33200	32756	38336	
524	0	33210	32736	38344	
525	0	33204	32748	38336	
526	0	33220	32740	38380	
527	0	33216	32744	38372	
528	0	33216	32748	38384	
529	0	33216	32764	38392	
530	0	33224	32748	38396	
531	0	33236	32760	38380	
532	0	33228	32756	38384	
533	0	33236	32772	38416	
534	0	33228	32754	38416	
535	0	33236	32764	38440	
536	0	33244	32760	38452	
537	0	33240	32760	38464	
538	0	33232	32764	38457	
539	0	33216	32770	38448	
540	0	33200	32778	38452	
541	0	33212	32772	38448	
542	0	33200	32760	38456	
543	0	33208	32764	38448	
544	0	33200	32758	38444	
545	0	33196	32780	38448	
546	0	33204	32784	38448	
547	0	33196	32780	38444	
548	0	33212	32772	38458	
549	0	33208	32764	38456	
550	0	33192	32780	38456	
551	0	33200	32784	38452	
552	0	33200	32792	38456	
553	0	33196	32792	38468	
554	0	33208	32774	38472	
555	0	33200	32808	38472	
556	0	33208	32808	38464	
557	0	33204	32792	38460	
558	0	33192	32800	38488	
559	0	33188	32800	38468	
560	0	33200	32788	38464	
561	0	33208	32778	38468	
562	0	33208	32772	38468	
563	0	33208	32748	38444	
564	0	33216	32756	38424	
565	0	33212	32756	38424	
566	0	33208	32764	38416	
567	0	33220	32752	38428	
568	0	33232	32756	38428	
569	0	33228	32760	38424	
570	0	33232	32768	38444	
571	0	33228	32752	38420	
572	0	33228	32752	38416	
573	0	33224	32752	38424	
574	0	33248	32752	38432	
575	0	33248	32746	38432	
576	0	33252	32756	38448	
577	0	33240	32740	38424	
578	0	33252	32744	38407	
579	0	33260	32728	38428	
580	0	33264	32716	38444	
581	0	33248	32708	38392	
582	0	33248	32704	38384	
583	0	33252	32684	38376	
584	0	33232	32688	38376	
585	0	33248	32696	38372	
586	0	33244	32696	38360	
587	0	33244	32676	38360	
588	0	33248	32676	38380	
589	0	33256	32672	38356	
590	0	33256	32676	38360	
591	0	33248	32660	38376	
592	0	33240	32660	38368	
593	0	33256	32664	38372	
594	0	33256	32664	38344	
595	0	33256	32664	38368	
596	0	33272	32664	38400	
597	0	33260	32684	38388	
598	0	33248	32680	38364	
599	0	33244	32672	38372	
600	0	33252	32660	38364	
601	0	33244	32652	38368	
602	0	33244	32660	38376	
603	0	33244	32652	38376	
604	0	33244	32660	38360	
605	0	33248	32656	38340	
606	0	33240	32672	38348	
607	0	33260	32664	38348	
608	0	33256	32664	38348	
609	0	33246	32672	38364	
610	0	33252	32674	38360	
611	0	33252	32676	38352	
612	0	33256	32676	38348	
613	0	33244	32688	38360	
614	0	33256	32692	38380	
615	0	33248	32688	38368	
616	0	33272	32696	38380	
617	0	33280	32688	38396	
618	0	33280	32688	38404	
619	0	33264	32684	38388	
620	0	33256	32696	38396	
621	0	33256	32690	38372	
622	0	33248	32688	38368	
623	0	33228	32696	38356	
624	0	33240	32700	38352	
625	0	33244	32704	38364	
626	0	33244	32708	38356	
627	0	33264	32700	38352	
628	0	33268	32696	38368	
629	0	33260	32692	38368	
630	0	33260	32698	38376	
631	0	33244	32696	38376	
632	0	33260	32696	38372	
633	0	33248	32688	38360	
634	0	33252	32672	38364	
635	0	33256	32676	38376	
636	0	33264	32676	38384	
637	0	33260	32680	38392	
638	0	33260	32674	38408	
639	0	33260	32664	38428	
640	0	33260	32656	38432	
641	0	33244	32664	38440	
642	0	33241	32660	38428	
643	0	33248	32664	38424	
644	0	33264	32660	38426	
645	0	33262	32668	38444	
646	0	33264	32672	38436	
647	0	33252	32688	38436	
648	0	33256	32700	38432	
649	0	33256	32684	38436	
650	0	33260	32696	38436	
651	0	33256	32696	38458	
652	0	33244	32704	38468	
653	0	33244	32704	38456	
654	0	33256	32704	38444	
655	0	33252	32712	38440	
656	0	33268	32716	38464	
657	0	33248	32728	38460	
658	0	33248	32718	38456	
659	0	33252	32724	38472	
660	0	33248	32726	38436	
661	0	33242	32728	38452	
662	0	33248	32740	38436	
663	0	33240	32732	38428	
664	0	33228	32728	38408	
665	0	33240	32736	38424	
666	0	33248	32728	38420	
667	0	33256	32744	38440	
668	0	33248	32740	38420	
669	0	33236	32744	38432	
670	0	33240	32748	38428	
671	0	33240	32748	38416	
672	0	33248	32744	38440	
673	0	33256	32756	38424	
674	0	33248	32748	38412	
675	0	33256	32748	38404	
676	0	33248	32768	38412	
677	0	33240	32772	38400	
678	0	33264	32778	38412	
679	0	33248	32780	38400	
680	0	33248	32768	38400	
681	0	33248	32768	38404	
682	0	33236	32764	38400	
683	0	33264	32768	38416	
684	0	33256	32752	38424	
685	0	33256	32752	38444	
686	0	33252	32752	38436	
687	0	33232	32764	38448	
688	0	33240	32748	38436	
689	0	33248	32752	38436	
690	0	33252	32752	38466	
691	0	33256	32744	38460	
692	0	33236	32752	38468	
693	0	33244	32760	38476	
694	0	33240	32760	38496	
695	0	33248	32768	38528	
696	0	33236	32768	38548	
697	0	33240	32780	38532	
698	0	33232	32772	38544	
699	0	33236	32788	38516	
700	0	33228	32776	38516	
701	0	33232	32774	38512	
702	0	33224	32772	38520	
703	0	33216	32772	38504	
704	0	33204	32764	38476	
705	0	33224	32752	38496	
706	0	33224	32768	38516	
707	0	33228	32774	38508	
708	0	33232	32772	38508	
709	0	33248	32772	38488	
710	0	33260	32780	38496	
711	0	33244	32808	38480	
712	0	33244	32798	38480	
713	0	33232	32808	38480	
714	0	33248	32816	38448	
715	0	33256	32824	38440	
716	0	33260	32824	38444	
717	0	33256	32808	38448	
718	0	33256	32824	38456	
719	0	33248	32820	38428	
720	0	33252	32816	38420	
721	0	33248	32800	38412	
722	0	33244	32781	38408	
723	0	33232	32756	38392	
724	0	33228	32760	38412	
725	0	33236	32756	38432	
726	0	33240	32724	38416	
727	0	33248	32740	38388	
728	0	33248	32732	38376	
729	0	33244	32772	38378	
730	0	33256	32744	38344	
731	0	33252	32764	38356	
732	0	33252	32756	38344	
733	0	33240	32760	38360	
734	0	33242	32760	38360	
735	0	33244	32776	38368	
736	0	33268	32780	38372	
737	0	33240	32784	38380	
738	0	33234	32784	38392	
739	0	33252	32768	38392	
740	0	33248	32762	38384	
741	0	33240	32746	38388	
742	0	33244	32730	38376	
743	0	33232	32744	38380	
744	0	33220	32732	38392	
745	0	33216	32740	38392	
746	0	33224	32732	38392	
747	0	33232	32736	38384	
748	0	33228	32732	38360	
749	0	33224	32740	38368	
750	0	33216	32748	38360	
751	0	33228	32768	38352	
752	0	33236	32772	38328	
753	0	33240	32776	38324	
754	0	33236	32768	38344	
755	0	33240	32784	38332	
756	0	33244	32780	38348	
757	0	33244	32778	38352	
758	0	33260	32764	38304	
759	0	33260	32764	38328	
760	0	33252	32764	38328	
761	0	33244	32752	38328	
762	0	33232	32744	38296	
763	0	33232	32740	38288	
764	0	33232	32728	38280	
765	0	33240	32728	38304	
766	0	33248	32724	38302	
767	0	33244	32716	38312	
768	0	33236	32717	38312	
769	0	33236	32732	38304	
770	0	33241	32732	38304	
771	0	33252	32748	38296	
772	0	33256	32736	38288	
773	0	33256	32733	38268	
774	0	33256	32740	38264	
775	0	33272	32736	38260	
776	0	33276	32724	38272	
777	0	33268	32716	38296	
778	0	33268	32728	38300	
779	0	33264	32728	38320	
780	0	33264	32720	38352	
781	0	33280	32728	38364	
782	0	33250	32736	38376	
783	0	33252	32720	38352	
784	0	33252	32716	38356	
785	0	33260	32716	38348	
786	0	33240	32728	38360	
787	0	33248	32720	38364	
788	0	33256	32724	38376	
789	0	33252	32704	38396	
790	0	33240	32736	38406	
791	0	33240	32720	38404	
792	0	33248	32716	38432	
793	0	33256	32728	38432	
794	0	33256	32700	38424	
795	0	33276	32708	38416	
796	0	33276	32708	38416	
797	0	33272	32716	38436	
798	0	33268	32716	38416	
799	0	33280	32712	38428	
800	0	33268	32716	38440	
801	0	33264	32704	38424	
802	0	33264	32696	38412	
803	0	33240	32696	38388	
804	0	33252	32680	38376	
805	0	33260	32684	38412	
806	0	33256	32696	38432	
807	0	33256	32696	38432	
808	0	33252	32704	38448	
809	0	33248	32704	38456	
810	0	33264	32692	38440	
811	0	33252	32712	38452	
812	0	33252	32720	38456	
813	0	33248	32712	38448	
814	0	33264	32736	38432	
815	0	33280	32728	38428	
816	0	33272	32752	38456	
817	0	33276	32736	38464	
818	0	33276	32748	38476	
819	0	33284	32736	38452	
820	0	33284	32729	38456	
821	0	33280	32716	38444	
822	0	33264	32724	38432	
823	0	33268	32716	38448	
824	0	33268	32692	38432	
825	0	33272	32708	38432	
826	0	33256	32709	38432	
827	0	33268	32704	38407	
828	0	33244	32716	38416	
829	0	33252	32724	38416	
830	0	33244	32721	38424	
831	0	33252	32720	38424	
832	0	33252	32714	38428	
833	0	33236	32720	38416	
834	0	33232	32728	38440	
835	0	33232	32728	38456	
836	0	33237	32740	38472	
837	0	33248	32740	38484	
838	0	33248	32732	38452	
839	0	33242	32744	38428	
840	0	33256	32732	38432	
841	0	33248	32744	38440	
842	0	33232	32724	38424	
843	0	33240	32720	38434	
844	0	33244	32724	38424	
845	0	33240	32720	38416	
846	0	33240	32736	38424	
847	0	33216	32748	38412	
848	0	33248	32756	38404	
849	0	33252	32740	38394	
850	0	33256	32736	38388	
851	0	33260	32748	38392	
852	0	33256	32744	38392	
853	0	33242	32744	38388	
854	0	33232	32752	38384	
855	0	33240	32764	38392	
856	0	33248	32744	38384	
857	0	33256	32746	38412	
858	0	33252	32736	38416	
859	0	33264	32730	38408	
860	0	33252	32732	38394	
861	0	33248	32736	38368	
862	0	33252	32728	38360	
863	0	33232	32728	38376	
864	0	33224	32736	38396	
865	0	33236	32736	38384	
866	0	33248	32746	38356	
867	0	33256	32752	38360	
868	0	33248	32756	38364	
869	0	33224	32752	38352	
870	0	33232	32741	38360	
871	0	33252	32748	38372	
872	0	33244	32736	38368	
873	0	33252	32724	38368	
874	0	33242	32716	38380	
875	0	33248	32724	38384	
876	0	33256	32716	38380	
877	0	33256	32716	38394	
878	0	33256	32708	38392	
879	0	33260	32718	38392	
880	0	33240	32708	38384	
881	0	33256	32716	38388	
882	0	33248	32712	38392	
883	0	33244	32704	38360	
884	0	33252	32698	38384	
885	0	33260	32692	38412	
886	0	33260	32696	38404	
887	0	33256	32696	38392	
888	0	33250	32696	38396	
889	0	33256	32700	38376	
890	0	33252	32728	38368	
891	0	33246	32724	38368	
892	0	33244	32732	38356	
893	0	33248	32728	38340	
894	0	33250	32740	38336	
895	0	33256	32736	38360	
896	0	33272	32724	38372	
897	0	33268	32720	38356	
898	0	33258	32720	38332	
899	0	33264	32716	38348	
900	0	33268	32712	38360	
901	0	33248	32720	38372	
902	0	33244	32720	38370	
903	0	33248	32712	38372	
904	0	33240	32718	38368	
905	0	33248	32712	38360	
906	0	33240	32696	38368	
907	0	33242	32720	38380	
908	0	33256	32696	38384	
909	0	33252	32696	38396	
910	0	33258	32728	38392	
911	0	33260	32724	38396	
912	0	33256	32724	38404	
913	0	33256	32716	38408	
914	0	33248	32736	38416	
915	0	33252	32724	38432	
916	0	33248	32736	38416	
917	0	33264	32728	38424	
918	0	33252	32720	38416	
919	0	33248	32736	38424	
920	0	33236	32728	38420	
921	0	33248	32732	38420	
922	0	33248	32712	38400	
923	0	33232	32718	38420	
924	0	33228	32724	38444	
925	0	33256	32728	38436	
926	0	33252	32724	38452	
927	0	33240	32744	38440	
928	0	33236	32736	38420	
929	0	33248	32768	38440	
930	0	33228	32764	38436	
931	0	33244	32756	38444	
932	0	33252	32752	38444	
933	0	33248	32760	38428	
934	0	33248	32772	38440	
935	0	33248	32780	38438	
936	0	33248	32810	38456	
937	0	33248	32808	38444	
938	0	33248	32796	38424	
939	0	33236	32788	38426	
940	0	33236	32782	38448	
941	0	33228	32784	38424	
942	0	33220	32773	38416	
943	0	33220	32768	38428	
944	0	33216	32768	38440	
945	0	33220	32768	38432	
946	0	33228	32792	38448	
947	0	33224	32780	38440	
948	0	33216	32784	38452	
949	0	33212	32788	38472	
950	0	33216	32788	38466	
951	0	33224	32780	38480	
952	0	33228	32784	38468	
953	0	33216	32784	38436	
954	0	33216	32774	38420	
955	0	33212	32784	38428	
956	0	33224	32784	38440	
957	0	33232	32784	38464	
958	0	33226	32776	38456	
959	0	33212	32780	38448	
960	0	33216	32784	38436	
961	0	33208	32775	38424	
962	0	33200	32766	38400	
963	0	33208	32772	38412	
964	0	33208	32775	38424	
965	0	33212	32780	38420	
966	0	33220	32792	38408	
967	0	33212	32804	38404	
968	0	33210	32792	38390	
969	0	33224	32782	38396	
970	0	33236	32774	38392	
971	0	33224	32772	38408	
972	0	33224	32772	38404	
973	0	33240	32772	38396	
974	0	33236	32772	38406	
975	0	33240	32776	38404	
976	0	33240	32772	38420	
977	0	33236	32768	38412	
978	0	33244	32760	38420	
979	0	33240	32774	38424	
980	0	33248	32774	38400	
981	0	33248	32764	38408	
982	0	33244	32764	38416	
983	0	33236	32744	38406	
984	0	33224	32752	38400	
985	0	33232	32740	38401	
986	0	33232	32760	38396	
987	0	33232	32736	38412	
988	0	33240	32728	38432	
989	0	33244	32736	38436	
990	0	33240	32737	38440	
991	0	33216	32732	38424	
992	0	33236	32736	38396	
993	0	33242	32740	38400	
994	0	33236	32740	38420	
995	0	33240	32736	38420	
996	0	33256	32740	38424	
997	0	33240	32748	38416	
998	0	33236	32748	38408	
999	0	33252	32732	38404	
1000	0	33236	32740	38412	
1001	0	33232	32736	38416	
1002	0	33232	32728	38404	
1003	0	33240	32724	38392	
1004	0	33236	32728	38368	
1005	0	33236	32732	38372	
1006	0	33236	32744	38372	
1007	0	33228	32746	38376	
1008	0	33248	32740	38360	
1009	0	33232	32740	38356	
1010	0	33240	32748	38356	
1011	0	33244	32748	38364	
1012	0	33252	32734	38400	
1013	0	33244	32736	38392	
1014	0	33248	32724	38420	
1015	0	33264	32720	38396	
1016	0	33256	32724	38380	
1017	0	33252	32724	38384	
1018	0	33276	32722	38424	
1019	0	33264	32708	38400	
1020	0	33256	32714	38412	
1021	0	33248	32712	38410	
1022	0	33240	32720	38400	
1023	0	33240	32728	38396	
1024	0	33240	32712	38392	
1025	0	33240	32704	38380	
1026	0	33248	32716	38400	
1027	0	33248	32724	38384	
1028	0	33256	32736	38368	
1029	0	33240	32736	38352	
1030	0	33242	32737	38388	
1031	0	33248	32720	38384	
1032	0	33248	32716	38392	
1033	0	33232	32716	38388	
1034	0	33240	32732	38396	
1035	0	33240	32720	38412	
1036	0	33242	32720	38408	
1037	0	33232	32724	38408	
1038	0	33256	32716	38404	
1039	0	33240	32708	38396	
1040	0	33244	32708	38404	
1041	0	33240	32708	38384	
1042	0	33248	32704	38380	
1043	0	33256	32692	38392	
1044	0	33248	32680	38376	
1045	0	33252	32680	38380	
1046	0	33244	32696	38384	
1047	0	33248	32698	38388	
1048	0	33264	32692	38372	
1049	0	33252	32696	38392	
1050	0	33256	32698	38384	
1051	0	33252	32696	38388	
1052	0	33264	32692	38378	
1053	0	33268	32684	38388	
1054	0	33272	32692	38392	
1055	0	33276	32692	38404	
1056	0	33264	32692	38392	
1057	0	33264	32700	38376	
1058	0	33264	32692	38376	
1059	0	33268	32696	38392	
1060	0	33256	32696	38380	
1061	0	33244	32698	38406	
1062	0	33240	32712	38400	
1063	0	33232	32704	38388	
1064	0	33248	32698	38372	
1065	0	33220	32688	38372	
1066	0	33232	32728	38392	
1067	0	33232	32724	38372	
1068	0	33248	32728	38348	
1069	0	33256	32728	38352	
1070	0	33264	32744	38368	
1071	0	33256	32760	38392	
1072	0	33232	32768	38400	
1073	0	33232	32764	38412	
1074	0	33232	32760	38400	
1075	0	33240	32772	38428	
1076	0	33232	32768	38436	
1077	0	33248	32756	38444	
1078	0	33240	32752	38440	
1079	0	33248	32752	38432	
1080	0	33240	32748	38436	
1081	0	33224	32730	38448	
1082	0	33220	32724	38436	
1083	0	33220	32716	38436	
1084	0	33216	32712	38444	
1085	0	33232	32708	38428	
1086	0	33236	32712	38460	
1087	0	33236	32728	38468	
1088	0	33248	32724	38440	
1089	0	33236	32728	38424	
1090	0	33244	32748	38396	
1091	0	33240	32748	38408	
1092	0	33240	32756	38404	
1093	0	33244	32740	38440	
1094	0	33240	32736	38440	
1095	0	33256	32740	38448	
1096	0	33248	32744	38456	
1097	0	33260	32736	38480	
1098	0	33252	32752	38484	
1099	0	33252	32748	38472	
1100	0	33248	32740	38464	
1101	0	33244	32736	38448	
1102	0	33228	32736	38432	
1103	0	33232	32724	38444	
1104	0	33232	32704	38448	
1105	0	33232	32720	38452	
1106	0	33224	32732	38440	
1107	0	33240	32732	38448	
1108	0	33256	32736	38468	
1109	0	33244	32736	38456	
1110	0	33236	32736	38448	
1111	0	33240	32736	38448	
1112	0	33242	32742	38452	
1113	0	33248	32736	38452	
1114	0	33232	32724	38468	
1115	0	33236	32732	38456	
1116	0	33228	32744	38484	
1117	0	33236	32748	38492	
1118	0	33232	32744	38484	
1119	0	33240	32752	38468	
1120	0	33248	32728	38464	
1121	0	33244	32720	38464	
1122	0	33248	32716	38456	
1123	0	33232	32712	38460	
1124	0	33236	32712	38460	
1125	0	33228	32712	38448	
1126	0	33240	32720	38440	
1127	0	33248	32716	38420	
1128	0	33256	32728	38452	
1129	0	33248	32732	38444	
1130	0	33248	32720	38452	
1131	0	33248	32744	38424	
1132	0	33252	32740	38388	
1133	0	33258	32740	38424	
1134	0	33264	32736	38416	
1135	0	33244	32720	38404	
1136	0	33248	32732	38404	
1137	0	33260	32716	38400	
1138	0	33272	32724	38384	
1139	0	33272	32708	38388	
1140	0	33256	32720	38400	
1141	0	33252	32704	38380	
1142	0	33248	32708	38384	
1143	0	33244	32688	38364	
1144	0	33240	32688	38372	
1145	0	33236	32688	38352	
1146	0	33236	32696	38364	
1147	0	33240	32720	38356	
1148	0	33232	32736	38384	
1149	0	33240	32716	38372	
1150	0	33248	32728	38376	
1151	0	33240	32720	38384	
1152	0	33240	32722	38384	
1153	0	33236	32744	38384	
1154	0	33232	32732	38400	
1155	0	33244	32744	38420	
1156	0	33240	32752	38416	
1157	0	33240	32753	38432	
1158	0	33232	32760	38432	
1159	0	33228	32748	38440	
1160	0	33224	32748	38432	
1161	0	33232	32756	38432	
1162	0	33224	32752	38420	
1163	0	33212	32760	38416	
1164	0	33212	32764	38404	
1165	0	33210	32762	38416	
1166	0	33216	32768	38424	
1167	0	33220	32764	38432	
1168	0	33208	32760	38410	
1169	0	33228	32756	38396	
1170	0	33220	32760	38392	
1171	0	33220	32752	38400	
1172	0	33216	32752	38396	
1173	0	33220	32756	38407	
1174	0	33216	32752	38384	
1175	0	33220	32768	38384	
1176	0	33228	32764	38380	
1177	0	33236	32768	38394	
1178	0	33232	32768	38372	
1179	0	33232	32760	38356	
1180	0	33226	32760	38344	
1181	0	33232	32756	38340	
1182	0	33236	32744	38364	
1183	0	33232	32728	38344	
1184	0	33228	32724	38318	
1185	0	33224	32736	38324	
1186	0	33248	32728	38352	
1187	0	33240	32716	38344	
1188	0	33248	32724	38348	
1189	0	33248	32720	38352	
1190	0	33260	32716	38368	
1191	0	33252	32716	38348	
1192	0	33252	32704	38336	
1193	0	33244	32720	38356	
1194	0	33252	32716	38372	
1195	0	33250	32724	38368	
1196	0	33256	32728	38376	
1197	0	33252	32724	38384	
1198	0	33248	32732	38405	
1199	0	33244	32716	38396	
1200	0	33240	32724	38408	
1201	0	33220	32716	38392	
1202	0	33236	32712	38388	
1203	0	33228	32708	38404	
1204	0	33236	32688	38420	
1205	0	33236	32700	38416	
1206	0	33224	32712	38420	
1207	0	33232	32728	38420	
1208	0	33218	32732	38422	
1209	0	33236	32732	38416	
1210	0	33216	32732	38436	
1211	0	33224	32744	38436	
1212	0	33220	32744	38436	
1213	0	33224	32764	38424	
1214	0	33224	32768	38440	
1215	0	33208	32772	38426	
1216	0	33216	32792	38440	
1217	0	33224	32788	38444	
1218	0	33240	32796	38456	
1219	0	33232	32784	38464	
1220	0	33224	32788	38448	
1221	0	33210	32764	38464	
1222	0	33216	32780	38428	
1223	0	33208	32784	38420	
1224	0	33216	32796	38404	
1225	0	33220	32784	38384	
1226	0	33216	32792	38376	
1227	0	33228	32772	38392	
1228	0	33234	32780	38424	
1229	0	33236	32772	38400	
1230	0	33232	32784	38400	
1231	0	33244	32780	38396	
1232	0	33232	32760	38404	
1233	0	33234	32768	38416	
1234	0	33232	32756	38408	
1235	0	33240	32760	38420	
1236	0	33248	32764	38404	
1237	0	33248	32768	38416	
1238	0	33252	32748	38416	
1239	0	33256	32744	38424	
1240	0	33252	32712	38424	
1241	0	33232	32704	38424	
1242	0	33236	32704	38432	
1243	0	33240	32696	38424	
1244	0	33240	32708	38424	
1245	0	33216	32712	38432	
1246	0	33228	32720	38456	
1247	0	33224	32712	38444	
1248	0	33224	32724	38432	
1249	0	33232	32708	38436	
1250	0	33240	32712	38452	
1251	0	33256	32716	38440	
1252	0	33252	32709	38440	
1253	0	33240	32704	38448	
1254	0	33236	32728	38440	
1255	0	33240	32736	38472	
1256	0	33232	32736	38492	
1257	0	33232	32732	38490	
1258	0	33232	32740	38472	
1259	0	33228	32736	38460	
1260	0	33236	32752	38456	
1261	0	33224	32748	38456	
1262	0	33216	32740	38452	
1263	0	33228	32728	38432	
1264	0	33216	32732	38432	
1265	0	33236	32744	38424	
1266	0	33224	32760	38420	
1267	0	33224	32752	38424	
1268	0	33224	32748	38396	
1269	0	33224	32756	38384	
1270	0	33232	32752	38392	
1271	0	33224	32762	38388	
1272	0	33224	32760	38380	
1273	0	33228	32760	38384	
1274	0	33232	32760	38372	
1275	0	33232	32764	38364	
1276	0	33240	32768	38344	
1277	0	33232	32792	38372	
1278	0	33250	32784	38368	
1279	0	33232	32774	38344	
1280	0	33240	32768	38332	
1281	0	33224	32780	38344	
1282	0	33216	32762	38336	
1283	0	33212	32752	38324	
1284	0	33224	32748	38308	
1285	0	33228	32760	38336	
1286	0	33220	32752	38344	
1287	0	33224	32744	38320	
1288	0	33240	32744	38304	
1289	0	33240	32752	38308	
1290	0	33240	32730	38296	
1291	0	33240	32736	38308	
1292	0	33236	32740	38312	
1293	0	33244	32724	38328	
1294	0	33244	32736	38324	
1295	0	33240	32732	38324	
1296	0	33248	32736	38348	
1297	0	33264	32752	38368	
1298	0	33256	32752	38364	
1299	0	33256	32768	38352	
1300	0	33248	32772	38296	
1301	0	33260	32768	38300	
1302	0	33264	32768	38312	
1303	0	33252	32764	38304	
1304	0	33240	32792	38300	
1305	0	33248	32796	38312	
1306	0	33240	32780	38332	
1307	0	33232	32776	38312	
1308	0	33216	32784	38304	
1309	0	33224	32784	38296	
1310	0	33228	32774	38296	
1311	0	33240	32780	38308	
1312	0	33224	32760	38316	
1313	0	33220	32752	38360	
1314	0	33216	32752	38378	
1315	0	33224	32744	38388	
1316	0	33244	32744	38424	
1317	0	33224	32756	38420	
1318	0	33236	32748	38428	
1319	0	33228	32744	38436	
1320	0	33232	32760	38456	
1321	0	33220	32764	38476	
1322	0	33220	32756	38464	
1323	0	33224	32744	38468	
1324	0	33216	32740	38480	
1325	0	33216	32748	38516	
1326	0	33228	32740	38513	
1327	0	33216	32740	38524	
1328	0	33216	32752	38524	
1329	0	33220	32741	38520	
1330	0	33228	32716	38508	
1331	0	33224	32720	38520	
1332	0	33216	32716	38532	
1333	0	33232	32720	38548	
1334	0	33236	32716	38538	
1335	0	33224	32720	38516	
1336	0	33224	32732	38508	
1337	0	33234	32744	38508	
1338	0	33232	32740	38500	
1339	0	33236	32740	38464	
1340	0	33232	32756	38448	
1341	0	33224	32748	38446	
1342	0	33232	32760	38456	
1343	0	33228	32736	38436	
1344	0	33220	32728	38416	
1345	0	33228	32732	38412	
1346	0	33232	32720	38416	
1347	0	33232	32744	38420	
1348	0	33232	32744	38416	
1349	0	33240	32740	38400	
1350	0	33232	32740	38392	
1351	0	33248	32720	38404	
1352	0	33252	32720	38400	
1353	0	33244	32728	38372	
1354	0	33240	32716	38340	
1355	0	33248	32736	38368	
1356	0	33268	32732	38380	
1357	0	33264	32744	38392	
1358	0	33268	32728	38388	
1359	0	33248	32720	38385	
1360	0	33252	32724	38392	
1361	0	33252	32732	38368	
1362	0	33252	32708	38376	
1363	0	33256	32708	38376	
1364	0	33232	32704	38384	
1365	0	33232	32704	38394	
1366	0	33224	32704	38392	
1367	0	33228	32712	38384	
1368	0	33232	32720	38404	
1369	0	33240	32720	38400	
1370	0	33240	32716	38416	
1371	0	33240	32724	38424	
1372	0	33248	32732	38416	
1373	0	33248	32720	38436	
1374	0	33248	32744	38420	
1375	0	33240	32732	38426	
1376	0	33240	32737	38404	
1377	0	33248	32740	38396	
1378	0	33248	32744	38400	
1379	0	33240	32736	38400	
1380	0	33236	32744	38396	
1381	0	33224	32758	38372	
1382	0	33240	32740	38380	
1383	0	33232	32736	38368	
1384	0	33236	32720	38352	
1385	0	33224	32696	38344	
1386	0	33226	32712	38362	
1387	0	33236	32712	38352	
1388	0	33236	32712	38376	
1389	0	33240	32708	38372	
1390	0	33244	32716	38368	
1391	0	33240	32720	38368	
1392	0	33232	32728	38380	
1393	0	33236	32744	38376	
1394	0	33236	32752	38368	
1395	0	33248	32764	38388	
1396	0	33256	32760	38376	
1397	0	33256	32769	38376	
1398	0	33240	32756	38380	
1399	0	33240	32764	38376	
1400	0	33248	32764	38388	
1401	0	33228	32764	38356	
1402	0	33224	32768	38384	
1403	0	33232	32752	38388	
1404	0	33228	32744	38376	
1405	0	33224	32740	38400	
1406	0	33228	32752	38396	
1407	0	33224	32752	38400	
1408	0	33224	32740	38412	
1409	0	33224	32740	38448	
1410	0	33224	32748	38448	
1411	0	33224	32760	38432	
1412	0	33224	32744	38428	
1413	0	33240	32748	38424	
1414	0	33224	32750	38420	
1415	0	33232	32775	38420	
1416	0	33236	32762	38424	
1417	0	33228	32772	38421	
1418	0	33228	32780	38412	
1419	0	33224	32772	38396	
1420	0	33224	32756	38388	
1421	0	33220	32764	38384	
1422	0	33220	32774	38396	
1423	0	33216	32768	38380	
1424	0	33220	32764	38407	
1425	0	33224	32756	38400	
1426	0	33228	32764	38407	
1427	0	33220	32756	38414	
1428	0	33216	32760	38420	
1429	0	33232	32760	38428	
1430	0	33228	32780	38432	
1431	0	33224	32760	38424	
1432	0	33232	32772	38416	
1433	0	33232	32748	38452	
1434	0	33248	32748	38456	
1435	0	33244	32760	38460	
1436	0	33244	32768	38460	
1437	0	33248	32764	38460	
1438	0	33248	32768	38456	
1439	0	33248	32768	38464	
1440	0	33244	32764	38456	
1441	0	33244	32768	38464	
1442	0	33236	32752	38448	
1443	0	33236	32760	38440	
1444	0	33240	32760	38440	
1445	0	33240	32748	38440	
1446	0	33244	32752	38452	
1447	0	33256	32752	38428	
1448	0	33252	32756	38444	
1449	0	33256	32756	38448	
1450	0	33260	32764	38444	
1451	0	33252	32768	38432	
1452	0	33244	32756	38432	
1453	0	33236	32756	38432	
1454	0	33256	32736	38440	
1455	0	33244	32740	38453	
1456	0	33264	32732	38488	
1457	0	33260	32732	38504	
1458	0	33268	32732	38472	
1459	0	33273	32728	38456	
1460	0	33268	32740	38440	
1461	0	33256	32740	38428	
1462	0	33252	32744	38432	
1463	0	33244	32748	38444	
1464	0	33232	32748	38432	
1465	0	33232	32752	38420	
1466	0	33248	32760	38408	
1467	0	33240	32768	38400	
1468	0	33256	32764	38408	
1469	0	33248	32761	38396	
1470	0	33252	32760	38396	
1471	0	33252	32756	38402	
1472	0	33252	32768	38400	
1473	0	33248	32772	38380	
1474	0	33244	32764	38384	
1475	0	33252	32784	38392	
1476	0	33260	32784	38368	
1477	0	33260	32792	38364	
1478	0	33260	32788	38344	
1479	0	33268	32772	38356	
1480	0	33264	32772	38328	
1481	0	33252	32760	38332	
1482	0	33248	32756	38328	
1483	0	33236	32748	38304	
1484	0	33248	32736	38308	
1485	0	33244	32730	38312	
1486	0	33268	32736	38328	
1487	0	33256	32744	38328	
1488	0	33264	32736	38316	
1489	0	33260	32736	38300	
1490	0	33256	32736	38328	
1491	0	33256	32740	38328	
1492	0	33252	32742	38328	
1493	0	33248	32736	38320	
1494	0	33264	32740	38320	
1495	0	33268	32736	38340	
1496	0	33264	32736	38346	
1497	0	33272	32740	38360	
1498	0	33272	32728	38369	
1499	0	33264	32721	38356	
1500	0	33272	32720	38344	
1501	0	33272	32716	38360	
1502	0	33260	32704	38380	
1503	0	33254	32716	38376	
1504	0	33244	32708	38340	
1505	0	33244	32704	38316	
1506	0	33240	32704	38320	
1507	0	33256	32696	38328	
1508	0	33248	32692	38336	
1509	0	33240	32688	38344	
1510	0	33248	32704	38332	
1511	0	33236	32712	38352	
1512	0	33240	32716	38332	
1513	0	33240	32725	38316	
1514	0	33248	32736	38328	
1515	0	33264	32732	38352	
1516	0	33260	32744	38352	
1517	0	33260	32752	38344	
1518	0	33264	32760	38344	
1519	0	33264	32752	38368	
1520	0	33268	32752	38396	
1521	0	33260	32744	38412	
1522	0	33248	32734	38416	
1523	0	33236	32744	38417	
1524	0	33240	32732	38400	
1525	0	33248	32740	38428	
1526	0	33248	32740	38448	
1527	0	33240	32736	38468	
1528	0	33244	32744	38472	
1529	0	33240	32748	38472	
1530	0	33244	32752	38432	
1531	0	33240	32752	38448	
1532	0	33264	32748	38428	
1533	0	33248	32748	38424	
1534	0	33256	32748	38440	
1535	0	33264	32754	38468	
1536	0	33276	32748	38448	
1537	0	33268	32756	38484	
1538	0	33264	32760	38480	
1539	0	33268	32748	38480	
1540	0	33256	32744	38484	
1541	0	33256	32744	38452	
1542	0	33260	32736	38456	
1543	0	33244	32728	38464	
1544	0	33264	32724	38464	
1545	0	33232	32732	38468	
1546	0	33236	32738	38456	
1547	0	33234	32736	38452	
1548	0	33248	32756	38448	
1549	0	33244	32740	38440	
1550	0	33250	32760	38440	
1551	0	33256	32748	38444	
1552	0	33260	32744	38416	
1553	0	33256	32748	38416	
1554	0	33256	32748	38436	
1555	0	33252	32764	38432	
1556	0	33252	32780	38436	
1557	0	33260	32772	38440	
1558	0	33264	32784	38436	
1559	0	33260	32788	38436	
1560	0	33244	32775	38432	
1561	0	33248	32756	38440	
1562	0	33248	32756	38448	
1563	0	33240	32752	38448	
1564	0	33236	32752	38432	
1565	0	33236	32752	38424	
1566	0	33232	32748	38440	
1567	0	33248	32748	38432	
1568	0	33248	32768	38428	
1569	0	33236	32756	38436	
1570	0	33252	32764	38448	
1571	0	33264	32760	38452	
1572	0	33245	32764	38444	
1573	0	33252	32775	38448	
1574	0	33248	32774	38432	
1575	0	33240	32780	38464	
1576	0	33256	32768	38440	
1577	0	33260	32780	38432	
1578	0	33252	32800	38436	
1579	0	33244	32788	38432	
1580	0	33248	32792	38428	
1581	0	33244	32792	38412	
1582	0	33248	32778	38406	
1583	0	33252	32784	38412	
1584	0	33240	32764	38384	
1585	0	33236	32760	38384	
1586	0	33236	32756	38416	
1587	0	33228	32760	38404	
1588	0	33236	32760	38432	
1589	0	33236	32784	38424	
1590	0	33228	32792	38436	
1591	0	33244	32784	38440	
1592	0	33240	32796	38408	
1593	0	33244	32792	38404	
1594	0	33228	32808	38396	
1595	0	33236	32792	38404	
1596	0	33252	32816	38400	
1597	0	33248	32826	38404	
1598	0	33228	32824	38392	
1599	0	33228	32810	38396	
1600	0	33220	32804	38368	
1601	0	33220	32800	38360	
1602	0	33216	32796	38348	
1603	0	33232	32800	38336	
1604	0	33224	32796	38312	
1605	0	33224	32784	38332	
1606	0	33220	32800	38332	
1607	0	33216	32812	38324	
1608	0	33220	32820	38312	
1609	0	33228	32816	38308	
1610	0	33208	32828	38330	
1611	0	33224	32824	38348	
1612	0	33232	32834	38352	
1613	0	33234	32812	38344	
1614	0	33216	32824	38340	
1615	0	33232	32820	38352	
1616	0	33244	32816	38376	
1617	0	33248	32832	38384	
1618	0	33233	32826	38384	
1619	0	33228	32848	38392	
1620	0	33236	32836	38404	
1621	0	33232	32824	38432	
1622	0	33224	32812	38428	
1623	0	33216	32812	38424	
1624	0	33204	32804	38420	
1625	0	33216	32796	38420	
1626	0	33212	32808	38436	
1627	0	33224	32808	38456	
1628	0	33220	32808	38464	
1629	0	33224	32816	38476	
1630	0	33224	32808	38456	
1631	0	33224	32804	38460	
1632	0	33232	32796	38452	
1633	0	33224	32816	38464	
1634	0	33232	32812	38444	
1635	0	33224	32820	38445	
1636	0	33236	32824	38472	
1637	0	33244	32816	38464	
1638	0	33240	32820	38456	
1639	0	33232	32824	38464	
1640	0	33232	32820	38492	
1641	0	33224	32820	38480	
1642	0	33232	32820	38440	
1643	0	33208	32816	38444	
1644	0	33200	32816	38428	
1645	0	33196	32814	38420	
1646	0	33192	32812	38428	
1647	0	33204	32808	38428	
1648	0	33208	32808	38424	
1649	0	33208	32796	38440	
1650	0	33220	32780	38456	
1651	0	33208	32784	38442	
1652	0	33224	32784	38436	
1653	0	33224	32780	38456	
1654	0	33240	32776	38496	
1655	0	33244	32762	38488	
1656	0	33252	32775	38464	
1657	0	33260	32788	38457	
1658	0	33264	32792	38456	
1659	0	33256	32776	38452	
1660	0	33264	32772	38476	
1661	0	33260	32752	38468	
1662	0	33260	32744	38464	
1663	0	33256	32740	38464	
1664	0	33240	32733	38454	
1665	0	33244	32716	38460	
1666	0	33240	32716	38472	
1667	0	33240	32720	38464	
1668	0	33248	32720	38452	
1669	0	33256	32700	38448	
1670	0	33260	32696	38448	
1671	0	33244	32708	38432	
1672	0	33248	32724	38448	
1673	0	33248	32728	38444	
1674	0	33256	32736	38428	
1675	0	33256	32728	38426	
1676	0	33268	32736	38440	
1677	0	33264	32756	38408	
1678	0	33280	32748	38432	
1679	0	33284	32752	38440	
1680	0	33276	32744	38432	
1681	0	33264	32754	38408	
1682	0	33252	32752	38420	
1683	0	33256	32720	38392	
1684	0	33244	32720	38400	
1685	0	33244	32728	38388	
1686	0	33260	32724	38388	
1687	0	33244	32716	38416	
1688	0	33264	32724	38400	
1689	0	33260	32728	38388	
1690	0	33260	32730	38380	
1691	0	33260	32716	38388	
1692	0	33248	32708	38376	
1693	0	33248	32704	38380	
1694	0	33248	32728	38384	
1695	0	33244	32748	38376	
1696	0	33256	32760	38392	
1697	0	33248	32760	38368	
1698	0	33256	32756	38400	
1699	0	33260	32756	38380	
1700	0	33264	32740	38392	
1701	0	33268	32744	38392	
1702	0	33272	32744	38368	
1703	0	33260	32744	38364	
1704	0	33260	32744	38368	
1705	0	33240	32744	38348	
1706	0	33248	32736	38364	
1707	0	33240	32740	38348	
1708	0	33244	32744	38336	
1709	0	33240	32744	38304	
1710	0	33240	32754	38296	
1711	0	33244	32760	38296	
1712	0	33240	32780	38300	
1713	0	33246	32772	38300	
1714	0	33252	32764	38312	
1715	0	33240	32764	38320	
1716	0	33240	32756	38292	
1717	0	33240	32776	38316	
1718	0	33264	32785	38312	
1719	0	33248	32788	38336	
1720	0	33252	32780	38336	
1721	0	33256	32756	38352	
1722	0	33260	32752	38336	
1723	0	33248	32760	38328	
1724	0	33236	32752	38316	
1725	0	33240	32740	38292	
1726	0	33244	32728	38324	
1727	0	33256	32729	38332	
1728	0	33260	32724	38332	
1729	0	33252	32736	38348	
1730	0	33248	32728	38368	
1731	0	33236	32728	38376	
1732	0	33228	32736	38348	
1733	0	33228	32744	38356	
1734	0	33256	32736	38352	
1735	0	33244	32724	38360	
1736	0	33248	32728	38328	
1737	0	33264	32744	38352	
1738	0	33260	32744	38356	
1739	0	33252	32752	38344	
1740	0	33252	32748	38324	
1741	0	33240	32748	38320	
1742	0	33244	32760	38336	
1743	0	33232	32744	38368	
1744	0	33224	32744	38372	
1745	0	33228	32756	38368	
1746	0	33216	32764	38364	
1747	0	33232	32768	38372	
1748	0	33224	32760	38388	
1749	0	33224	32768	38376	
1750	0	33216	32768	38384	
1751	0	33228	32752	38382	
1752	0	33224	32760	38360	
1753	0	33232	32736	38380	
1754	0	33240	32748	38372	
1755	0	33240	32740	38388	
1756	0	33232	32736	38380	
1757	0	33244	32744	38388	
1758	0	33240	32748	38388	
1759	0	33244	32744	38396	
1760	0	33256	32732	38400	
1761	0	33246	32744	38400	
1762	0	33240	32744	38400	
1763	0	33234	32736	38412	
1764	0	33228	32736	38424	
1765	0	33232	32732	38416	
1766	0	33224	32729	38424	
1767	0	33244	32724	38452	
1768	0	33240	32732	38448	
1769	0	33244	32744	38448	
1770	0	33232	32729	38452	
1771	0	33216	32728	38440	
1772	0	33228	32716	38428	
1773	0	33232	32724	38428	
1774	0	33228	32720	38444	
1775	0	33244	32733	38464	
1776	0	33242	32728	38482	
1777	0	33256	32733	38488	
1778	0	33260	32728	38472	
1779	0	33260	32732	38480	
1780	0	33252	32736	38452	
1781	0	33248	32724	38448	
1782	0	33240	32724	38436	
1783	0	33240	32720	38404	
1784	0	33232	32728	38400	
1785	0	33232	32728	38420	
1786	0	33240	32750	38408	
1787	0	33240	32736	38404	
1788	0	33240	32744	38388	
1789	0	33256	32736	38400	
1790	0	33248	32724	38404	
1791	0	33264	32728	38408	
1792	0	33260	32724	38424	
1793	0	33260	32720	38420	
1794	0	33272	32728	38428	
1795	0	33260	32740	38420	
1796	0	33252	32744	38448	
1797	0	33248	32744	38448	
1798	0	33256	32752	38472	
1799	0	33256	32744	38464	
1800	0	33236	32754	38428	
1801	0	33236	32756	38432	
1802	0	33232	32744	38416	
1803	0	33228	32740	38388	
1804	0	33228	32736	38400	
1805	0	33224	32744	38392	
1806	0	33248	32736	38407	
1807	0	33232	32728	38416	
1808	0	33236	32740	38424	
1809	0	33244	32736	38404	
1810	0	33248	32724	38400	
1811	0	33240	32724	38388	
1812	0	33240	32724	38392	
1813	0	33248	32720	38407	
1814	0	33240	32728	38404	
1815	0	33252	32714	38412	
1816	0	33252	32728	38420	
1817	0	33272	32722	38404	
1818	0	33260	32740	38412	
1819	0	33260	32740	38432	
1820	0	33244	32744	38420	
1821	0	33244	32744	38436	
1822	0	33240	32756	38408	
1823	0	33256	32752	38416	
1824	0	33244	32752	38406	
1825	0	33244	32752	38400	
1826	0	33244	32764	38416	
1827	0	33252	32762	38420	
1828	0	33244	32768	38400	
1829	0	33244	32764	38384	
1830	0	33236	32780	38384	
1831	0	33236	32792	38392	
1832	0	33236	32784	38406	
1833	0	33240	32788	38420	
1834	0	33236	32780	38432	
1835	0	33240	32768	38456	
1836	0	33228	32784	38436	
1837	0	33228	32788	38448	
1838	0	33232	32788	38460	
1839	0	33232	32784	38436	
1840	0	33240	32776	38452	
1841	0	33236	32784	38460	
1842	0	33232	32774	38488	
1843	0	33232	32768	38484	
1844	0	33224	32768	38492	
1845	0	33212	32772	38484	
1846	0	33224	32774	38496	
1847	0	33216	32780	38492	
1848	0	33232	32776	38496	
1849	0	33232	32784	38472	
1850	0	33232	32788	38452	
1851	0	33224	32774	38432	
1852	0	33228	32760	38424	
1853	0	33228	32760	38408	
1854	0	33228	32752	38396	
1855	0	33216	32744	38408	
1856	0	33220	32764	38418	
1857	0	33224	32764	38404	
1858	0	33232	32764	38404	
1859	0	33228	32756	38394	
1860	0	33240	32752	38380	
1861	0	33232	32752	38384	
1862	0	33216	32750	38372	
1863	0	33224	32752	38352	
1864	0	33232	32736	38344	
1865	0	33224	32740	38324	
1866	0	33224	32760	38352	
1867	0	33224	32764	38336	
1868	0	33216	32774	38348	
1869	0	33212	32772	38336	
1870	0	33218	32784	38324	
1871	0	33236	32780	38336	
1872	0	33240	32792	38324	
1873	0	33236	32788	38344	
1874	0	33244	32772	38332	
1875	0	33240	32774	38328	
1876	0	33244	32788	38328	
1877	0	33236	32778	38336	
1878	0	33236	32784	38366	
1879	0	33248	32764	38372	
1880	0	33252	32768	38384	
1881	0	33260	32772	38392	
1882	0	33244	32784	38372	
1883	0	33248	32772	38378	
1884	0	33240	32762	38336	
1885	0	33232	32756	38348	
1886	0	33232	32768	38368	
1887	0	33232	32766	38360	
1888	0	33232	32768	38376	
1889	0	33232	32768	38376	
1890	0	33232	32760	38392	
1891	0	33240	32760	38392	
1892	0	33232	32784	38360	
1893	0	33232	32772	38344	
1894	0	33232	32752	38368	
1895	0	33244	32752	38380	
1896	0	33240	32740	38392	
1897	0	33248	32740	38407	
1898	0	33248	32752	38424	
1899	0	33248	32740	38404	
1900	0	33248	32752	38406	
1901	0	33256	32740	38400	
1902	0	33244	32740	38384	
1903	0	33224	32744	38372	
1904	0	33240	32724	38388	
1905	0	33236	32728	38380	
1906	0	33228	32736	38376	
1907	0	33242	32724	38380	
1908	0	33240	32732	38368	
1909	0	33256	32708	38380	
1910	0	33240	32724	38400	
1911	0	33232	32724	38388	
1912	0	33252	32728	38364	
1913	0	33264	32724	38356	
1914	0	33264	32732	38372	
1915	0	33264	32728	38392	
1916	0	33248	32732	38388	
1917	0	33260	32736	38404	
1918	0	33240	32736	38396	
1919	0	33256	32744	38406	
1920	0	33248	32740	38400	
1921	0	33240	32736	38400	
1922	0	33232	32728	38396	
1923	0	33226	32748	38396	
1924	0	33232	32724	38376	
1925	0	33232	32728	38392	
1926	0	33240	32732	38400	
1927	0	33248	32740	38376	
1928	0	33248	32756	38368	
1929	0	33244	32748	38372	
1930	0	33240	32760	38364	
1931	0	33244	32768	38360	
1932	0	33240	32764	38360	
1933	0	33248	32762	38396	
1934	0	33240	32760	38384	
1935	0	33244	32752	38410	
1936	0	33232	32764	38400	
1937	0	33232	32752	38436	
1938	0	33248	32748	38434	
1939	0	33248	32756	38432	
1940	0	33248	32748	38432	
1941	0	33240	32768	38408	
1942	0	33240	32760	38404	
1943	0	33232	32750	38406	
1944	0	33232	32732	38400	
1945	0	33240	32728	38416	
1946	0	33252	32724	38424	
1947	0	33252	32740	38424	
1948	0	33260	32724	38416	
1949	0	33264	32712	38420	
1950	0	33240	32728	38436	
1951	0	33248	32728	38436	
1952	0	33240	32720	38436	
1953	0	33236	32716	38424	
1954	0	33240	32728	38420	
1955	0	33236	32740	38424	
1956	0	33248	32736	38436	
1957	0	33249	32736	38416	
1958	0	33252	32752	38416	
1959	0	33248	32744	38407	
1960	0	33252	32748	38412	
1961	0	33244	32744	38424	
1962	0	33240	32732	38416	
1963	0	33236	32736	38408	
1964	0	33240	32732	38416	
1965	0	33232	32736	38416	
1966	0	33236	32732	38424	
1967	0	33240	32736	38440	
1968	0	33256	32740	38464	
1969	0	33240	32746	38452	
1970	0	33240	32745	38436	
1971	0	33248	32752	38420	
1972	0	33248	32744	38412	
1973	0	33240	32736	38416	
1974	0	33244	32728	38400	
1975	0	33240	32722	38424	
1976	0	33244	32716	38432	
1977	0	33248	32716	38456	
1978	0	33252	32736	38436	
1979	0	33228	32746	38436	
1980	0	33236	32752	38436	
1981	0	33232	32748	38424	
1982	0	33216	32740	38412	
1983	0	33200	32736	38404	
1984	0	33208	32744	38384	
1985	0	33212	32736	38404	
1986	0	33210	32732	38416	
1987	0	33200	32744	38404	
1988	0	33216	32756	38404	
1989	0	33208	32756	38404	
1990	0	33204	32756	38416	
1991	0	33212	32752	38416	
1992	0	33208	32752	38420	
1993	0	33224	32756	38404	
1994	0	33228	32752	38376	
1995	0	33216	32762	38360	
1996	0	33224	32764	38380	
1997	0	33232	32776	38412	
1998	0	33228	32792	38396	
1999	0	33228	32780	38368	
2000	0	33228	32784	38380	
2001	0	33220	32772	38372	
2002	0	33216	32772	38368	
2003	0	33200	32768	38356	
2004	0	33196	32768	38360	
2005	0	33192	32765	38340	
2006	0	33196	32752	38328	
2007	0	33192	32756	38312	
2008	0	33188	32768	38312	
2009	0	33184	32774	38336	
2010	0	33176	32774	38314	
2011	0	33176	32776	38304	
2012	0	33178	32776	38304	
2013	0	33184	32792	38300	
2014	0	33192	32816	38332	
2015	0	33200	32800	38344	
2016	0	33192	32804	38344	
2017	0	33188	32800	38356	
2018	0	33200	32808	38364	
2019	0	33200	32800	38368	
2020	0	33204	32812	38356	
2021	0	33208	32812	38360	
2022	0	33192	32816	38380	
2023	0	33172	32812	38388	
2024	0	33168	32800	38376	
2025	0	33176	32788	38388	
2026	0	33176	32780	38384	
2027	0	33172	32776	38376	
2028	0	33176	32770	38396	
2029	0	33188	32776	38404	
2030	0	33184	32788	38417	
2031	0	33176	32792	38416	
2032	0	33180	32784	38412	
2033	0	33188	32780	38424	
2034	0	33180	32775	38412	
2035	0	33168	32794	38424	
2036	0	33180	32800	38420	
2037	0	33184	32812	38436	
2038	0	33192	32812	38440	
2039	0	33200	32808	38460	
2040	0	33184	32804	38436	
2041	0	33180	32816	38440	
2042	0	33176	32792	38424	
2043	0	33168	32792	38420	
2044	0	33168	32792	38400	
2045	0	33172	32784	38404	
2046	0	33160	32784	38416	
2047	0	33172	32796	38404	
2048	0	33172	32784	38416	
2049	0	33172	32788	38416	
2050	0	33176	32792	38416	
2051	0	33172	32792	38420	
2052	0	33180	32784	38432	
2053	0	33168	32784	38432	
2054	0	33156	32784	38424	
2055	0	33172	32772	38444	
2056	0	33184	32772	38458	
2057	0	33184	32768	38456	
2058	0	33184	32768	38480	
2059	0	33188	32756	38480	
2060	0	33196	32764	38472	
2061	0	33184	32764	38468	
2062	0	33165	32760	38468	
2063	0	33168	32756	38468	
2064	0	33168	32756	38492	
2065	0	33164	32752	38516	
2066	0	33176	32762	38488	
2067	0	33176	32756	38465	
2068	0	33176	32752	38460	
2069	0	33168	32752	38464	
2070	0	33184	32764	38472	
2071	0	33192	32752	38458	
2072	0	33192	32762	38460	
2073	0	33188	32764	38432	
2074	0	33168	32772	38452	
2075	0	33172	32760	38440	
2076	0	33176	32762	38448	
2077	0	33184	32768	38444	
2078	0	33192	32773	38468	
2079	0	33196	32768	38452	
2080	0	33188	32784	38440	
2081	0	33196	32764	38442	
2082	0	33188	32772	38416	
2083	0	33176	32768	38404	
2084	0	33176	32772	38392	
2085	0	33172	32764	38392	
2086	0	33180	32764	38384	
2087	0	33172	32764	38384	
2088	0	33176	32760	38392	
2089	0	33176	32752	38388	
2090	0	33172	32756	38396	
2091	0	33172	32761	38392	
2092	0	33172	32764	38396	
2093	0	33180	32750	38388	
2094	0	33176	32768	38408	
2095	0	33184	32772	38406	
2096	0	33180	32776	38412	
2097	0	33188	32780	38420	
2098	0	33184	32784	38408	
2099	0	33192	32784	38420	
2100	0	33184	32772	38412	
2101	0	33200	32772	38416	
2102	0	33188	32748	38420	
2103	0	33180	32748	38432	
2104	0	33168	32764	38416	
2105	0	33184	32756	38428	
2106	0	33184	32752	38416	
2107	0	33184	32752	38420	
2108	0	33192	32752	38428	
2109	0	33196	32756	38428	
2110	0	33196	32752	38434	
2111	0	33204	32736	38412	
2112	0	33204	32732	38408	
2113	0	33200	32736	38416	
2114	0	33212	32740	38420	
2115	0	33200	32744	38428	
2116	0	33200	32760	38396	
2117	0	33208	32752	38406	
2118	0	33216	32736	38412	
2119	0	33216	32740	38404	
2120	0	33208	32730	38404	
2121	0	33204	32728	38384	
2122	0	33184	32728	38376	
2123	0	33176	32744	38372	
2124	0	33192	32736	38384	
2125	0	33192	32716	38392	
2126	0	33196	32704	38400	
2127	0	33192	32724	38400	
2128	0	33192	32730	38396	
2129	0	33212	32728	38406	
2130	0	33208	32736	38424	
2131	0	33192	32736	38430	
2132	0	33188	32740	38424	
2133	0	33196	32736	38440	
2134	0	33196	32740	38408	
2135	0	33200	32764	38428	
2136	0	33208	32752	38452	
2137	0	33204	32752	38472	
2138	0	33204	32750	38450	
2139	0	33200	32748	38440	
2140	0	33200	32764	38440	
2141	0	33204	32764	38432	
2142	0	33184	32772	38432	
2143	0	33192	32796	38444	
2144	0	33184	32796	38440	
2145	0	33176	32800	38408	
2146	0	33168	32808	38412	
2147	0	33176	32788	38424	
2148	0	33176	32792	38428	
2149	0	33180	32804	38412	
2150	0	33180	32788	38424	
2151	0	33188	32796	38446	
2152	0	33188	32772	38424	
2153	0	33200	32760	38420	
2154	0	33196	32764	38424	
2155	0	33200	32760	38424	
2156	0	33212	32760	38424	
2157	0	33224	32756	38448	
2158	0	33208	32762	38456	
2159	0	33216	32760	38448	
2160	0	33220	32764	38424	
2161	0	33236	32744	38406	
2162	0	33228	32736	38416	
2163	0	33224	32720	38432	
2164	0	33212	32724	38428	
2165	0	33208	32696	38408	
2166	0	33230	32700	38400	
2167	0	33240	32676	38444	
2168	0	33236	32688	38476	
2169	0	33236	32672	38448	
2170	0	33232	32680	38444	
2171	0	33236	32688	38440	
2172	0	33232	32688	38448	
2173	0	33224	32696	38468	
2174	0	33232	32696	38480	
2175	0	33240	32692	38476	
2176	0	33228	32708	38500	
2177	0	33232	32720	38476	
2178	0	33240	32710	38480	
2179	0	33248	32704	38480	
2180	0	33260	32704	38488	
2181	0	33248	32712	38484	
2182	0	33232	32724	38468	
2183	0	33228	32732	38484	
2184	0	33216	32736	38484	
2185	0	33224	32732	38504	
2186	0	33232	32717	38496	
2187	0	33224	32732	38504	
2188	0	33232	32740	38480	
2189	0	33236	32736	38504	
2190	0	33232	32740	38500	
2191	0	33242	32720	38504	
2192	0	33248	32716	38500	
2193	0	33244	32712	38488	
2194	0	33256	32716	38484	
2195	0	33252	32724	38500	
2196	0	33260	32728	38500	
2197	0	33248	32720	38500	
2198	0	33256	32728	38508	
2199	0	33248	32728	38496	
2200	0	33260	32730	38504	
2201	0	33256	32720	38488	
2202	0	33264	32716	38480	
2203	0	33248	32708	38484	
2204	0	33252	32704	38448	
2205	0	33260	32704	38484	
2206	0	33288	32696	38472	
2207	0	33276	32700	38480	
2208	0	33264	32704	38460	
2209	0	33254	32716	38448	
2210	0	33280	32712	38448	
2211	0	33272	32696	38452	
2212	0	33272	32700	38456	
2213	0	33272	32708	38460	
2214	0	33276	32708	38452	
2215	0	33296	32704	38472	
2216	0	33296	32706	38472	
2217	0	33300	32689	38464	
2218	0	33284	32712	38472	
2219	0	33272	32696	38456	
2220	0	33300	32696	38464	
2221	0	33292	32684	38480	
2222	0	33292	32680	38464	
2223	0	33280	32688	38444	
2224	0	33276	32700	38440	
2225	0	33269	32704	38413	
2226	0	33268	32700	38412	
2227	0	33284	32696	38428	
2228	0	33282	32704	38452	
2229	0	33288	32696	38448	
2230	0	33272	32700	38452	
2231	0	33272	32696	38460	
2232	0	33276	32712	38472	
2233	0	33264	32700	38468	
2234	0	33264	32724	38464	
2235	0	33274	32720	38476	
2236	0	33292	32732	38476	
2237	0	33296	32744	38480	
2238	0	33300	32744	38448	
2239	0	33288	32748	38432	
2240	0	33288	32752	38432	
2241	0	33292	32748	38452	
2242	0	33284	32732	38452	
2243	0	33274	32732	38408	
2244	0	33264	32720	38392	
2245	0	33268	32724	38380	
2246	0	33272	32720	38376	
2247	0	33264	32728	38400	
2248	0	33272	32712	38408	
2249	0	33284	32702	38396	
2250	0	33272	32704	38392	
2251	0	33284	32708	38404	
2252	0	33272	32698	38396	
2253	0	33280	32696	38400	
2254	0	33288	32696	38400	
2255	0	33288	32688	38412	
2256	0	33276	32692	38408	
2257	0	33284	32688	38412	
2258	0	33296	32692	38420	
2259	0	33288	32688	38410	
2260	0	33290	32674	38380	
2261	0	33280	32680	38392	
2262	0	33272	32688	38392	
2263	0	33260	32680	38356	
2264	0	33264	32664	38368	
2265	0	33260	32672	38372	
2266	0	33269	32684	38360	
2267	0	33268	32704	38376	
2268	0	33272	32708	38346	
2269	0	33280	32698	38328	
2270	0	33272	32704	38344	
2271	0	33272	32712	38376	
2272	0	33264	32716	38356	
2273	0	33264	32720	38364	
2274	0	33260	32724	38352	
2275	0	33260	32740	38344	
2276	0	33264	32756	38328	
2277	0	33264	32756	38316	
2278	0	33264	32760	38300	
2279	0	33268	32760	38300	
2280	0	33264	32760	38300	
2281	0	33260	32744	38304	
2282	0	33256	32744	38324	
2283	0	33240	32736	38322	
2284	0	33248	32722	38300	
2285	0	33240	32716	38284	
2286	0	33244	32708	38316	
2287	0	33240	32716	38328	
2288	0	33248	32720	38316	
2289	0	33248	32720	38300	
2290	0	33252	32724	38304	
2291	0	33268	32728	38328	
2292	0	33264	32736	38328	
2293	0	33248	32748	38320	
2294	0	33252	32744	38312	
2295	0	33272	32756	38304	
2296	0	33272	32764	38305	
2297	0	33280	32774	38312	
2298	0	33284	32780	38336	
2299	0	33272	32784	38336	
2300	0	33256	32792	38328	
2301	0	33260	32774	38330	
2302	0	33252	32775	38316	
2303	0	33236	32768	38316	
2304	0	33232	32764	38304	
2305	0	33228	32760	38316	
2306	0	33232	32774	38316	
2307	0	33232	32772	38304	
2308	0	33232	32768	38320	
2309	0	33240	32772	38336	
2310	0	33224	32768	38368	
2311	0	33236	32776	38360	
2312	0	33228	32780	38336	
2313	0	33244	32780	38336	
2314	0	33244	32772	38336	
2315	0	33256	32784	38328	
2316	0	33252	32788	38336	
2317	0	33242	32800	38324	
2318	0	33264	32784	38344	
2319	0	33264	32792	38340	
2320	0	33248	32792	38332	
2321	0	33240	32788	38332	
2322	0	33238	32792	38328	
2323	0	33220	32784	38316	
2324	0	33228	32775	38312	
2325	0	33232	32756	38336	
2326	0	33240	32764	38312	
2327	0	33232	32756	38328	
2328	0	33228	32762	38328	
2329	0	33232	32770	38324	
2330	0	33240	32762	38324	
2331	0	33248	32772	38332	
2332	0	33256	32784	38348	
2333	0	33240	32772	38340	
2334	0	33240	32760	38312	
2335	0	33240	32744	38324	
2336	0	33260	32746	38352	
2337	0	33264	32748	38357	
2338	0	33256	32756	38352	
2339	0	33252	32752	38332	
2340	0	33256	32744	38324	
2341	0	33256	32752	38328	
2342	0	33244	32746	38320	
2343	0	33232	32744	38320	
2344	0	33236	32728	38288	
2345	0	33229	32720	38312	
2346	0	33224	32744	38316	
2347	0	33228	32752	38320	
2348	0	33216	32760	38304	
2349	0	33234	32757	38312	
2350	0	33240	32764	38336	
2351	0	33224	32756	38348	
2352	0	33224	32752	38352	
2353	0	33224	32764	38356	
2354	0	33236	32756	38360	
2355	0	33228	32764	38368	
2356	0	33232	32768	38384	
2357	0	33216	32772	38372	
2358	0	33224	32784	38398	
2359	0	33222	32772	38388	
2360	0	33232	32778	38384	
2361	0	33216	32784	38396	
2362	0	33212	32788	38424	
2363	0	33208	32784	38404	
2364	0	33200	32788	38400	
2365	0	33200	32792	38420	
2366	0	33192	32804	38432	
2367	0	33196	32804	38424	
2368	0	33208	32816	38440	
2369	0	33208	32812	38400	
2370	0	33212	32796	38420	
2371	0	33216	32808	38420	
2372	0	33216	32808	38396	
2373	0	33220	32812	38400	
2374	0	33224	32796	38412	
2375	0	33220	32788	38416	
2376	0	33212	32808	38432	
2377	0	33208	32812	38444	
2378	0	33208	32824	38440	
2379	0	33208	32816	38440	
2380	0	33216	32808	38440	
2381	0	33220	32824	38444	
2382	0	33204	32808	38404	
2383	0	33202	32800	38416	
2384	0	33184	32820	38408	
2385	0	33192	32824	38420	
2386	0	33200	32818	38412	
2387	0	33188	32836	38422	
2388	0	33192	32824	38424	
2389	0	33194	32828	38428	
2390	0	33208	32824	38424	
2391	0	33204	32832	38432	
2392	0	33216	32840	38408	
2393	0	33212	32832	38424	
2394	0	33196	32844	38424	
2395	0	33196	32848	38420	
2396	0	33192	32856	38440	
2397	0	33204	32868	38428	
2398	0	33204	32864	38392	
2399	0	33200	32872	38376	
2400	0	33192	32856	38380	
2401	0	33176	32872	38372	
2402	0	33184	32872	38380	
2403	0	33188	32876	38368	
2404	0	33176	32856	38360	
2405	0	33184	32848	38356	
2406	0	33172	32856	38336	
2407	0	33180	32864	38344	
2408	0	33200	32856	38368	
2409	0	33180	32868	38350	
2410	0	33176	32860	38372	
2411	0	33192	32856	38384	
2412	0	33200	32832	38388	
2413	0	33176	32848	38392	
2414	0	33176	32852	38400	
2415	0	33184	32841	38400	
2416	0	33196	32844	38388	
2417	0	33196	32832	38406	
2418	0	33200	32852	38400	
2419	0	33196	32836	38407	
2420	0	33204	32824	38392	
2421	0	33196	32820	38376	
2422	0	33188	32820	38368	
2423	0	33184	32804	38364	
2424	0	33176	32808	38376	
2425	0	33176	32788	38364	
2426	0	33160	32800	38352	
2427	0	33172	32804	38360	
2428	0	33184	32832	38376	
2429	0	33176	32824	38372	
2430	0	33180	32832	38384	
2431	0	33188	32828	38384	
2432	0	33176	32848	38384	
2433	0	33180	32840	38392	
2434	0	33176	32840	38406	
2435	0	33192	32844	38416	
2436	0	33180	32840	38412	
2437	0	33196	32840	38440	
2438	0	33196	32852	38448	
2439	0	33184	32836	38464	
2440	0	33176	32832	38444	
2441	0	33184	32844	38436	
2442	0	33176	32836	38432	
2443	0	33176	32820	38444	
2444	0	33152	32832	38440	
2445	0	33176	32828	38434	
2446	0	33172	32816	38428	
2447	0	33178	32800	38432	
2448	0	33168	32800	38436	
2449	0	33180	32812	38444	
2450	0	33180	32800	38444	
2451	0	33204	32800	38440	
2452	0	33208	32792	38448	
2453	0	33196	32792	38440	
2454	0	33192	32776	38456	
2455	0	33188	32780	38448	
2456	0	33208	32772	38452	
2457	0	33208	32764	38464	
2458	0	33208	32770	38504	
2459	0	33196	32768	38488	
2460	0	33216	32756	38496	
2461	0	33200	32760	38472	
2462	0	33196	32764	38484	
2463	0	33192	32756	38466	
2464	0	33184	32752	38480	
2465	0	33184	32744	38452	
2466	0	33192	32732	38440	
2467	0	33208	32740	38444	
2468	0	33208	32744	38448	
2469	0	33205	32736	38452	
2470	0	33210	32736	38472	
2471	0	33210	32744	38456	
2472	0	33216	32736	38440	
2473	0	33216	32744	38416	
2474	0	33200	32748	38428	
2475	0	33200	32732	38424	
2476	0	33192	32756	38444	
2477	0	33204	32752	38454	
2478	0	33216	32774	38448	
2479	0	33212	32768	38436	
2480	0	33208	32772	38436	
2481	0	33210	32760	38412	
2482	0	33204	32776	38428	
2483	0	33200	32768	38432	
2484	0	33192	32760	38452	
2485	0	33188	32780	38452	
2486	0	33184	32772	38456	
2487	0	33184	32776	38456	
2488	0	33180	32780	38466	
2489	0	33188	32772	38464	
2490	0	33192	32760	38464	
2491	0	33184	32765	38476	
2492	0	33184	32780	38492	
2493	0	33184	32772	38488	
2494	0	33164	32772	38484	
2495	0	33164	32768	38488	
2496	0	33164	32768	38496	
2497	0	33184	32748	38504	
2498	0	33184	32760	38516	
2499	0	33192	32756	38500	
2500	0	33180	32760	38492	
2501	0	33188	32744	38496	
2502	0	33188	32748	38496	
2503	0	33176	32744	38488	
2504	0	33180	32744	38492	
2505	0	33164	32724	38488	
2506	0	33172	32729	38476	
2507	0	33176	32748	38456	
2508	0	33188	32756	38448	
2509	0	33188	32760	38416	
2510	0	33186	32761	38400	
2511	0	33192	32768	38384	
2512	0	33196	32760	38368	
2513	0	33196	32772	38400	
2514	0	33188	32784	38406	
2515	0	33184	32792	38384	
2516	0	33196	32788	38392	
2517	0	33194	32792	38444	
2518	0	33196	32808	38448	
2519	0	33196	32804	38432	
2520	0	33192	32784	38420	
2521	0	33192	32792	38416	
2522	0	33196	32768	38412	
2523	0	33188	32768	38412	
2524	0	33184	32744	38392	
2525	0	33176	32740	38412	
2526	0	33176	32756	38416	
2527	0	33184	32764	38416	
2528	0	33192	32764	38424	
2529	0	33204	32768	38436	
2530	0	33200	32768	38428	
2531	0	33200	32772	38420	
2532	0	33200	32764	38424	
2533	0	33200	32754	38424	
2534	0	33212	32764	38400	
2535	0	33224	32756	38388	
2536	0	33232	32752	38396	
2537	0	33232	32760	38424	
2538	0	33240	32768	38436	
2539	0	33240	32764	38436	
2540	0	33224	32760	38428	
2541	0	33228	32772	38388	
2542	0	33236	32768	38400	
2543	0	33232	32772	38396	
2544	0	33220	32774	38400	
2545	0	33208	32764	38404	
2546	0	33204	32752	38384	
2547	0	33216	32760	38412	
2548	0	33216	32768	38416	
2549	0	33216	32764	38408	
2550	0	33216	32775	38424	
2551	0	33216	32780	38428	
2552	0	33216	32778	38424	
2553	0	33216	32780	38448	
2554	0	33232	32792	38460	
2555	0	33232	32780	38468	
2556	0	33244	32768	38464	
2557	0	33248	32772	38476	
2558	0	33256	32773	38472	
2559	0	33248	32752	38480	
2560	0	33252	32752	38476	
2561	0	33240	32744	38432	
2562	0	33220	32744	38424	
2563	0	33216	32740	38444	
2564	0	33208	32732	38444	
2565	0	33224	32720	38460	
2566	0	33220	32736	38448	
2567	0	33228	32724	38464	
2568	0	33224	32736	38460	
2569	0	33232	32752	38488	
2570	0	33224	32752	38492	
2571	0	33232	32748	38476	
2572	0	33232	32748	38472	
2573	0	33232	32752	38488	
2574	0	33240	32756	38492	
2575	0	33224	32756	38476	
2576	0	33236	32752	38460	
2577	0	33236	32768	38456	
2578	0	33248	32774	38480	
2579	0	33256	32752	38472	
2580	0	33260	32740	38440	
2581	0	33264	32740	38432	
2582	0	33252	32740	38428	
2583	0	33252	32736	38428	
2584	0	33244	32740	38406	
2585	0	33244	32732	38392	
2586	0	33248	32752	38400	
2587	0	33248	32760	38404	
2588	0	33244	32766	38400	
2589	0	33260	32752	38404	
2590	0	33256	32764	38380	
2591	0	33252	32768	38404	
2592	0	33244	32768	38404	
2593	0	33240	32784	38400	
2594	0	33240	32756	38410	
2595	0	33240	32768	38400	
2596	0	33232	32772	38408	
2597	0	33246	32780	38416	
2598	0	33240	32772	38432	
2599	0	33240	32772	38436	
2600	0	33244	32772	38428	
2601	0	33244	32775	38432	
2602	0	33240	32776	38420	
2603	0	33232	32784	38456	
2604	0	33240	32776	38444	
2605	0	33236	32772	38408	
2606	0	33240	32780	38412	
2607	0	33240	32784	38432	
2608	0	33236	32780	38444	
2609	0	33256	32768	38448	
2610	0	33252	32780	38456	
2611	0	33244	32784	38436	
2612	0	33256	32784	38424	
2613	0	33248	32774	38412	
2614	0	33248	32764	38420	
2615	0	33256	32772	38416	
2616	0	33260	32768	38432	
2617	0	33260	32784	38444	
2618	0	33256	32774	38432	
2619	0	33280	32780	38432	
2620	0	33290	32780	38412	
2621	0	33292	32772	38388	
2622	0	33264	32800	38368	
2623	0	33264	32784	38372	
2624	0	33264	32768	38384	
2625	0	33252	32774	38400	
2626	0	33240	32768	38400	
2627	0	33252	32760	38406	
2628	0	33256	32762	38407	
2629	0	33244	32756	38408	
2630	0	33240	32764	38424	
2631	0	33244	32772	38424	
2632	0	33244	32774	38428	
2633	0	33248	32776	38416	
2634	0	33252	32780	38424	
2635	0	33256	32796	38440	
2636	0	33264	32792	38436	
2637	0	33260	32824	38472	
2638	0	33264	32808	38472	
2639	0	33248	32820	38468	
2640	0	33264	32808	38444	
2641	0	33260	32816	38440	
2642	0	33256	32812	38420	
2643	0	33240	32800	38400	
2644	0	33252	32808	38392	
2645	0	33248	32800	38412	
2646	0	33264	32796	38404	
2647	0	33252	32792	38408	
2648	0	33266	32808	38412	
2649	0	33244	32812	38400	
2650	0	33248	32788	38376	
2651	0	33256	32792	38376	
2652	0	33264	32796	38388	
2653	0	33264	32808	38385	
2654	0	33268	32812	38392	
2655	0	33272	32824	38380	
2656	0	33280	32820	38388	
2657	0	33277	32812	38392	
2658	0	33284	32816	38372	
2659	0	33264	32808	38380	
2660	0	33264	32818	38376	
2661	0	33264	32808	38364	
2662	0	33276	32812	38344	
2663	0	33264	32808	38336	
2664	0	33268	32816	38352	
2665	0	33256	32804	38352	
2666	0	33264	32800	38376	
2667	0	33280	32792	38380	
2668	0	33268	32788	38392	
2669	0	33272	32792	38380	
2670	0	33260	32789	38388	
2671	0	33268	32792	38396	
2672	0	33264	32784	38380	
2673	0	33264	32788	38392	
2674	0	33276	32775	38380	
2675	0	33288	32772	38400	
2676	0	33300	32796	38404	
2677	0	33300	32796	38406	
2678	0	33300	32800	38420	
2679	0	33288	32800	38424	
2680	0	33292	32800	38436	
2681	0	33284	32800	38428	
2682	0	33292	32796	38416	
2683	0	33292	32792	38412	
2684	0	33276	32772	38404	
2685	0	33272	32784	38400	
2686	0	33272	32775	38424	
2687	0	33280	32776	38440	
2688	0	33284	32792	38456	
2689	0	33268	32792	38456	
2690	0	33272	32796	38440	
2691	0	33280	32792	38456	
2692	0	33264	32808	38468	
2693	0	33268	32804	38458	
2694	0	33272	32812	38472	
2695	0	33274	32816	38484	
2696	0	33264	32816	38496	
2697	0	33268	32832	38512	
2698	0	33272	32816	38504	
2699	0	33276	32824	38520	
2700	0	33269	32816	38516	
2701	0	33276	32812	38488	
2702	0	33268	32812	38472	
2703	0	33264	32800	38476	
2704	0	33272	32808	38500	
2705	0	33272	32804	38520	
2706	0	33256	32800	38512	
2707	0	33280	32812	38504	
2708	0	33280	32812	38500	
2709	0	33282	32796	38516	
2710	0	33280	32792	38504	
2711	0	33264	32790	38504	
2712	0	33268	32808	38480	
2713	0	33284	32796	38464	
2714	0	33288	32800	38476	
2715	0	33288	32812	38480	
2716	0	33300	32801	38480	
2717	0	33288	32808	38488	
2718	0	33292	32812	38500	
2719	0	33296	32808	38504	
2720	0	33288	32792	38496	
2721	0	33284	32792	38484	
2722	0	33272	32788	38480	
2723	0	33276	32776	38456	
2724	0	33280	32768	38444	
2725	0	33284	32752	38432	
2726	0	33272	32768	38448	
2727	0	33272	32760	38456	
2728	0	33296	32748	38464	
2729	0	33296	32756	38472	
2730	0	33296	32748	38468	
2731	0	33292	32760	38464	
2732	0	33296	32752	38428	
2733	0	33300	32748	38440	
2734	0	33312	32756	38448	
2735	0	33300	32748	38448	
2736	0	33312	32752	38452	
2737	0	33312	32764	38440	
2738	0	33324	32776	38444	
2739	0	33312	32776	38436	
2740	0	33324	32768	38420	
2741	0	33312	32772	38406	
2742	0	33316	32776	38412	
2743	0	33312	32772	38404	
2744	0	33320	32760	38368	
2745	0	33308	32768	38348	
2746	0	33308	32768	38368	
2747	0	33296	32790	38376	
2748	0	33300	32780	38380	
2749	0	33300	32796	38400	
2750	0	33300	32788	38400	
2751	0	33308	32784	38388	
2752	0	33308	32800	38380	
2753	0	33304	32800	38368	
2754	0	33306	32788	38372	
2755	0	33304	32816	38380	
2756	0	33304	32792	38368	
2757	0	33308	32804	38372	
2758	0	33304	32824	38364	
2759	0	33288	32820	38376	
2760	0	33300	32812	38360	
2761	0	33292	32832	38368	
2762	0	33288	32812	38376	
2763	0	33288	32810	38364	
2764	0	33276	32804	38360	
2765	0	33276	32808	38340	
2766	0	33284	32812	38360	
2767	0	33292	32812	38360	
2768	0	33288	32808	38348	
2769	0	33296	32812	38352	
2770	0	33300	32808	38360	
2771	0	33300	32792	38372	
2772	0	33288	32792	38376	
2773	0	33284	32804	38406	
2774	0	33280	32796	38392	
2775	0	33304	32778	38420	
2776	0	33300	32778	38424	
2777	0	33300	32768	38420	
2778	0	33304	32764	38440	
2779	0	33288	32760	38424	
2780	0	33292	32764	38432	
2781	0	33296	32768	38452	
2782	0	33304	32752	38424	
2783	0	33280	32756	38408	
2784	0	33284	32752	38400	
2785	0	33288	32736	38404	
2786	0	33292	32748	38412	
2787	0	33288	32756	38412	
2788	0	33284	32752	38424	
2789	0	33308	32740	38407	
2790	0	33304	32728	38416	
2791	0	33312	32736	38416	
2792	0	33316	32724	38436	
2793	0	33300	32718	38420	
2794	0	33312	32724	38426	
2795	0	33308	32717	38424	
2796	0	33312	32724	38416	
2797	0	33322	32732	38406	
2798	0	33316	32732	38404	
2799	0	33296	32748	38400	
2800	0	33312	32724	38392	
2801	0	33308	32728	38400	
2802	0	33304	32716	38384	
2803	0	33304	32708	38406	
2804	0	33308	32696	38424	
2805	0	33304	32688	38416	
2806	0	33312	32688	38404	
2807	0	33328	32688	38400	
2808	0	33336	32698	38400	
2809	0	33336	32704	38406	
2810	0	33328	32692	38406	
2811	0	33328	32688	38416	
2812	0	33328	32676	38428	
2813	0	33320	32682	38452	
2814	0	33328	32672	38448	
2815	0	33334	32672	38448	
2816	0	33340	32688	38417	
2817	0	33328	32692	38408	
2818	0	33336	32696	38432	
2819	0	33344	32688	38432	
2820	0	33340	32684	38444	
2821	0	33336	32680	38444	
2822	0	33324	32672	38452	
2823	0	33340	32668	38432	
2824	0	33322	32660	38432	
2825	0	33324	32680	38416	
2826	0	33328	32666	38408	
2827	0	33324	32692	38400	
2828	0	33316	32728	38400	
2829	0	33324	32732	38392	
2830	0	33324	32720	38406	
2831	0	33312	32748	38388	
2832	0	33312	32752	38376	
2833	0	33312	32760	38360	
2834	0	33304	32754	38377	
2835	0	33296	32748	38380	
2836	0	33296	32768	38392	
2837	0	33300	32768	38368	
2838	0	33308	32792	38384	
2839	0	33300	32788	38392	
2840	0	33296	32792	38404	
2841	0	33300	32788	38400	
2842	0	33288	32800	38396	
2843	0	33272	32788	38396	
2844	0	33280	32796	38424	
2845	0	33268	32792	38416	
2846	0	33272	32792	38400	
2847	0	33280	32800	38404	
2848	0	33296	32796	38396	
2849	0	33288	32796	38420	
2850	0	33284	32794	38420	
2851	0	33288	32796	38400	
2852	0	33280	32800	38396	
2853	0	33296	32796	38428	
2854	0	33280	32798	38444	
2855	0	33274	32780	38432	
2856	0	33268	32788	38456	
2857	0	33298	32796	38452	
2858	0	33300	32808	38464	
2859	0	33280	32813	38488	
2860	0	33276	32808	38480	
2861	0	33276	32788	38480	
2862	0	33274	32780	38456	
2863	0	33276	32772	38432	
2864	0	33260	32766	38448	
2865	0	33276	32744	38464	
2866	0	33276	32740	38448	
2867	0	33268	32748	38428	
2868	0	33264	32756	38452	
2869	0	33288	32760	38442	
2870	0	33289	32752	38424	
2871	0	33280	32752	38424	
2872	0	33296	32764	38440	
2873	0	33296	32768	38444	
2874	0	33272	32775	38444	
2875	0	33276	32784	38404	
2876	0	33272	32784	38408	
2877	0	33276	32796	38400	
2878	0	33268	32796	38432	
2879	0	33272	32796	38448	
2880	0	33260	32788	38432	
2881	0	33272	32784	38412	
2882	0	33264	32768	38408	
2883	0	33264	32776	38392	
2884	0	33276	32772	38404	
2885	0	33248	32744	38384	
2886	0	33252	32744	38396	
2887	0	33240	32748	38392	
2888	0	33228	32760	38404	
2889	0	33248	32756	38424	
2890	0	33256	32744	38440	
2891	0	33260	32740	38448	
2892	0	33256	32756	38444	
2893	0	33272	32756	38440	
2894	0	33264	32758	38432	
2895	0	33264	32774	38416	
2896	0	33256	32794	38436	
2897	0	33256	32800	38448	
2898	0	33269	32792	38458	
2899	0	33274	32784	38464	
2900	0	33280	32772	38452	
2901	0	33272	32772	38456	
2902	0	33280	32768	38444	
2903	0	33268	32760	38448	
2904	0	33276	32760	38452	
2905	0	33264	32748	38428	
2906	0	33264	32760	38420	
2907	0	33264	32756	38424	
2908	0	33264	32748	38432	
2909	0	33276	32752	38436	
2910	0	33268	32736	38440	
2911	0	33272	32742	38432	
2912	0	33268	32732	38436	
2913	0	33272	32728	38428	
2914	0	33276	32744	38416	
2915	0	33288	32736	38420	
2916	0	33288	32752	38424	
2917	0	33274	32772	38432	
2918	0	33292	32764	38424	
2919	0	33292	32772	38420	
2920	0	33300	32768	38424	
2921	0	33296	32758	38424	
2922	0	33304	32740	38412	
2923	0	33304	32720	38400	
2924	0	33284	32720	38412	
2925	0	33276	32714	38404	
2926	0	33284	32720	38400	
2927	0	33292	32720	38396	
2928	0	33308	32736	38416	
2929	0	33304	32736	38396	
2930	0	33304	32740	38392	
2931	0	33288	32744	38400	
2932	0	33280	32744	38384	
2933	0	33300	32744	38388	
2934	0	33300	32736	38376	
2935	0	33296	32740	38376	
2936	0	33292	32750	38384	
2937	0	33288	32764	38364	
2938	0	33304	32756	38368	
2939	0	33320	32756	38368	
2940	0	33320	32744	38368	
2941	0	33316	32768	38400	
2942	0	33314	32760	38412	
2943	0	33304	32758	38372	
2944	0	33300	32744	38360	
2945	0	33300	32740	38364	
2946	0	33304	32746	38392	
2947	0	33308	32748	38370	
2948	0	33304	32752	38360	
2949	0	33312	32764	38362	
2950	0	33316	32752	38396	
2951	0	33328	32760	38388	
2952	0	33320	32768	38328	
2953	0	33316	32772	38320	
2954	0	33302	32766	38336	
2955	0	33308	32768	38344	
2956	0	33308	32768	38360	
2957	0	33308	32796	38360	
2958	0	33304	32784	38364	
2959	0	33304	32788	38384	
2960	0	33308	32792	38376	
2961	0	33304	32794	38352	
2962	0	33300	32792	38336	
2963	0	33280	32788	38320	
2964	0	33272	32796	38316	
2965	0	33280	32796	38313	
2966	0	33280	32796	38312	
2967	0	33300	32808	38320	
2968	0	33296	32800	38312	
2969	0	33288	32800	38316	
2970	0	33288	32808	38312	
2971	0	33268	32812	38304	
2972	0	33284	32814	38298	
2973	0	33276	32816	38316	
2974	0	33276	32824	38300	
2975	0	33276	32832	38300	
2976	0	33292	32836	38312	
2977	0	33296	32826	38336	
2978	0	33300	32840	38356	
2979	0	33280	32856	38360	
2980	0	33284	32848	38328	
2981	0	33272	32848	38336	
2982	0	33268	32872	38336	
2983	0	33264	32852	38300	
2984	0	33268	32868	38300	
2985	0	33256	32860	38308	
2986	0	33276	32856	38300	
2987	0	33256	32864	38344	
2988	0	33252	32844	38356	
2989	0	33252	32848	38352	
2990	0	33264	32856	38368	
2991	0	33248	32868	38356	
2992	0	33256	32856	38364	
2993	0	33264	32846	38368	
2994	0	33256	32836	38384	
2995	0	33248	32848	38400	
2996	0	33260	32848	38392	
2997	0	33248	32860	38404	
2998	0	33248	32872	38406	
2999	0	33236	32865	38404	
3000	0	33228	32872	38400	
3001	0	33216	32876	38396	
3002	0	33228	32880	38388	
3003	0	33232	32868	38388	
3004	0	33234	32868	38388	
3005	0	33240	32852	38376	
3006	0	33224	32853	38376	
3007	0	33220	32852	38384	
3008	0	33232	32836	38380	
3009	0	33232	32837	38412	
3010	0	33248	32832	38400	
3011	0	33244	32832	38400	
3012	0	33248	32852	38404	
3013	0	33240	32856	38424	
3014	0	33232	32852	38436	
3015	0	33248	32836	38426	
3016	0	33260	32832	38432	
3017	0	33252	32816	38424	
3018	0	33252	32828	38424	
3019	0	33252	32824	38424	
3020	0	33256	32812	38432	
3021	0	33268	32796	38432	
3022	0	33264	32792	38444	
3023	0	33260	32780	38416	
3024	0	33268	32780	38406	
3025	0	33272	32780	38380	
3026	0	33268	32774	38360	
3027	0	33268	32796	38372	
3028	0	33260	32772	38376	
3029	0	33248	32768	38372	
3030	0	33264	32768	38392	
3031	0	33272	32760	38392	
3032	0	33268	32752	38384	
3033	0	33268	32740	38384	
3034	0	33288	32752	38368	
3035	0	33304	32756	38364	
3036	0	33304	32752	38368	
3037	0	33296	32760	38376	
3038	0	33300	32753	38376	
3039	0	33304	32756	38380	
3040	0	33320	32732	38392	
3041	0	33304	32732	38412	
3042	0	33296	32740	38408	
3043	0	33284	32736	38400	
3044	0	33284	32736	38380	
3045	0	33290	32732	38400	
3046	0	33288	32728	38392	
3047	0	33297	32734	38392	
3048	0	33292	32732	38380	
3049	0	33304	32740	38392	
3050	0	33304	32736	38388	
3051	0	33300	32720	38412	
3052	0	33300	32720	38392	
3053	0	33296	32736	38388	
3054	0	33304	32728	38364	
3055	0	33304	32720	38364	
3056	0	33300	32752	38392	
3057	0	33308	32748	38368	
3058	0	33304	32756	38360	
3059	0	33306	32768	38356	
3060	0	33304	32768	38356	
3061	0	33316	32772	38368	
3062	0	33300	32772	38364	
3063	0	33298	32764	38344	
3064	0	33296	32768	38340	
3065	0	33292	32760	38344	
3066	0	33288	32760	38340	
3067	0	33300	32752	38368	
3068	0	33304	32772	38376	
3069	0	33296	32772	38372	
3070	0	33308	32780	38384	
3071	0	33292	32760	38384	
3072	0	33312	32764	38396	
3073	0	33312	32752	38407	
3074	0	33304	32748	38404	
3075	0	33296	32744	38404	
3076	0	33288	32752	38456	
3077	0	33296	32740	38448	
3078	0	33296	32736	38458	
3079	0	33296	32740	38460	
3080	0	33304	32736	38480	
3081	0	33312	32732	38488	
3082	0	33308	32736	38488	
3083	0	33308	32732	38464	
3084	0	33308	32724	38448	
3085	0	33296	32728	38444	
3086	0	33288	32732	38440	
3087	0	33288	32724	38460	
3088	0	33288	32720	38456	
3089	0	33280	32720	38428	
3090	0	33296	32720	38444	
3091	0	33288	32724	38472	
3092	0	33280	32728	38464	
3093	0	33288	32720	38456	
3094	0	33296	32718	38464	
3095	0	33304	32712	38440	
3096	0	33308	32720	38436	
3097	0	33300	32712	38440	
3098	0	33308	32724	38452	
3099	0	33312	32720	38448	
3100	0	33308	32720	38424	
3101	0	33304	32724	38392	
3102	0	33304	32716	38384	
3103	0	33304	32720	38392	
3104	0	33292	32716	38384	
3105	0	33296	32696	38404	
3106	0	33304	32712	38380	
3107	0	33296	32716	38380	
3108	0	33310	32724	38378	
3109	0	33312	32720	38388	
3110	0	33300	32720	38388	
3111	0	33288	32736	38376	
3112	0	33312	32712	38364	
3113	0	33316	32704	38396	
3114	0	33308	32696	38388	
3115	0	33318	32704	38376	
3116	0	33298	32724	38400	
3117	0	33300	32708	38372	
3118	0	33300	32728	38364	
3119	0	33292	32744	38380	
3120	0	33300	32740	38380	
3121	0	33296	32740	38376	
3122	0	33296	32748	38352	
3123	0	33284	32752	38352	
3124	0	33300	32740	38336	
3125	0	33304	32744	38328	
3126	0	33292	32740	38320	
3127	0	33282	32752	38316	
3128	0	33284	32760	38336	
3129	0	33280	32768	38328	
3130	0	33292	32772	38332	
3131	0	33280	32772	38324	
3132	0	33272	32782	38364	
3133	0	33272	32772	38348	
3134	0	33280	32788	38344	
3135	0	33280	32788	38372	
3136	0	33276	32780	38388	
3137	0	33272	32785	38388	
3138	0	33260	32772	38392	
3139	0	33264	32764	38428	
3140	0	33260	32764	38424	
3141	0	33256	32772	38428	
3142	0	33256	32770	38412	
3143	0	33256	32760	38388	
3144	0	33252	32760	38392	
3145	0	33252	32744	38376	
3146	0	33252	32752	38368	
3147	0	33252	32736	38372	
3148	0	33248	32740	38370	
3149	0	33248	32740	38380	
3150	0	33272	32728	38380	
3151	0	33260	32712	38400	
3152	0	33260	32724	38404	
3153	0	33260	32704	38416	
3154	0	33264	32708	38412	
3155	0	33256	32696	38416	
3156	0	33256	32688	38424	
3157	0	33268	32712	38440	
3158	0	33260	32708	38420	
3159	0	33268	32696	38448	
3160	0	33280	32704	38424	
3161	0	33264	32696	38412	
3162	0	33264	32700	38408	
3163	0	33252	32684	38408	
3164	0	33240	32692	38416	
3165	0	33228	32688	38396	
3166	0	33240	32688	38384	
3167	0	33232	32708	38412	
3168	0	33240	32712	38392	
3169	0	33232	32712	38380	
3170	0	33252	32704	38368	
3171	0	33256	32704	38362	
3172	0	33248	32720	38388	
3173	0	33240	32728	38380	
3174	0	33244	32712	38368	
3175	0	33236	32732	38356	
3176	0	33236	32736	38364	
3177	0	33240	32724	38368	
3178	0	33224	32744	38380	
3179	0	33244	32760	38392	
3180	0	33228	32764	38380	
3181	0	33216	32772	38392	
3182	0	33216	32761	38424	
3183	0	33208	32766	38400	
3184	0	33220	32764	38396	
3185	0	33216	32760	38392	
3186	0	33224	32768	38384	
3187	0	33208	32780	38392	
3188	0	33220	32784	38356	
3189	0	33204	32792	38396	
3190	0	33200	32788	38392	
3191	0	33202	32784	38372	
3192	0	33196	32792	38372	
3193	0	33198	32780	38372	
3194	0	33200	32784	38352	
3195	0	33184	32800	38364	
3196	0	33200	32792	38384	
3197	0	33200	32788	38360	
3198	0	33208	32800	38352	
3199	0	33208	32812	38384	
3200	0	33200	32816	38366	
3201	0	33192	32816	38348	
3202	0	33188	32808	38336	
3203	0	33184	32824	38320	
3204	0	33184	32812	38336	
3205	0	33176	32808	38328	
3206	0	33188	32796	38304	
3207	0	33172	32800	38292	
3208	0	33176	32816	38284	
3209	0	33180	32842	38268	
3210	0	33184	32816	38284	
3211	0	33180	32832	38300	
3212	0	33176	32816	38312	
3213	0	33172	32813	38314	
3214	0	33172	32816	38288	
3215	0	33180	32816	38272	
3216	0	33172	32824	38292	
3217	0	33192	32824	38304	
3218	0	33184	32828	38324	
3219	0	33188	32824	38332	
3220	0	33192	32816	38312	
3221	0	33192	32820	38304	
3222	0	33194	32812	38324	
3223	0	33178	32808	38312	
3224	0	33184	32808	38312	
3225	0	33176	32800	38304	
3226	0	33168	32780	38292	
3227	0	33176	32800	38312	
3228	0	33164	32800	38344	
3229	0	33176	32792	38330	
3230	0	33176	32800	38324	
3231	0	33164	32808	38328	
3232	0	33160	32800	38336	
3233	0	33164	32808	38350	
3234	0	33168	32820	38336	
3235	0	33172	32796	38332	
3236	0	33160	32816	38352	
3237	0	33164	32820	38376	
3238	0	33168	32824	38374	
3239	0	33168	32824	38364	
3240	0	33168	32832	38356	
3241	0	33168	32816	38366	
3242	0	33164	32812	38360	
3243	0	33156	32824	38360	
3244	0	33144	32817	38344	
3245	0	33144	32808	38324	
3246	0	33136	32804	38346	
3247	0	33148	32808	38360	
3248	0	33152	32816	38336	
3249	0	33136	32800	38336	
3250	0	33148	32818	38352	
3251	0	33148	32824	38364	
3252	0	33148	32832	38392	
3253	0	33144	32824	38404	
3254	0	33156	32828	38420	
3255	0	33168	32820	38414	
3256	0	33168	32824	38424	
3257	0	33168	32848	38407	
3258	0	33176	32832	38420	
3259	0	33180	32844	38448	
3260	0	33176	32836	38428	
3261	0	33168	32836	38432	
3262	0	33164	32852	38424	
3263	0	33164	32840	38416	
3264	0	33164	32828	38420	
3265	0	33156	32832	38404	
3266	0	33148	32828	38384	
3267	0	33156	32844	38380	
3268	0	33160	32840	38368	
3269	0	33168	32824	38392	
3270	0	33168	32840	38408	
3271	0	33148	32824	38409	
3272	0	33144	32836	38404	
3273	0	33152	32833	38392	
3274	0	33160	32826	38388	
3275	0	33144	32820	38404	
3276	0	33156	32820	38416	
3277	0	33160	32808	38412	
3278	0	33156	32820	38416	
3279	0	33156	32828	38428	
3280	0	33184	32820	38432	
3281	0	33172	32832	38432	
3282	0	33176	32832	38432	
3283	0	33176	32804	38440	
3284	0	33180	32800	38432	
3285	0	33168	32792	38424	
3286	0	33172	32792	38432	
3287	0	33176	32800	38428	
3288	0	33180	32788	38428	
3289	0	33162	32800	38428	
3290	0	33168	32800	38464	
3291	0	33164	32808	38436	
3292	0	33156	32796	38444	
3293	0	33176	32792	38444	
3294	0	33164	32784	38452	
3295	0	33152	32800	38440	
3296	0	33164	32812	38464	
3297	0	33180	32812	38456	
3298	0	33184	32832	38456	
3299	0	33180	32828	38468	
3300	0	33176	32852	38480	
3301	0	33172	32848	38480	
3302	0	33160	32836	38476	
3303	0	33148	32846	38488	
3304	0	33136	32864	38468	
3305	0	33144	32856	38464	
3306	0	33136	32844	38452	
3307	0	33136	32856	38448	
3308	0	33120	32872	38444	
3309	0	33130	32868	38448	
3310	0	33140	32864	38464	
3311	0	33124	32868	38448	
3312	0	33128	32856	38448	
3313	0	33116	32876	38452	
3314	0	33120	32888	38416	
3315	0	33124	32888	38424	
3316	0	33120	32884	38424	
3317	0	33140	32868	38416	
3318	0	33148	32866	38412	
3319	0	33152	32864	38426	
3320	0	33164	32856	38416	
3321	0	33168	32848	38408	
3322	0	33164	32836	38436	
3323	0	33144	32844	38424	
3324	0	33144	32840	38420	
3325	0	33140	32840	38396	
3326	0	33136	32824	38392	
3327	0	33144	32840	38432	
3328	0	33144	32820	38424	
3329	0	33140	32824	38404	
3330	0	33140	32828	38410	
3331	0	33148	32816	38416	
3332	0	33160	32804	38408	
3333	0	33160	32808	38416	
3334	0	33164	32808	38416	
3335	0	33160	32808	38392	
3336	0	33164	32808	38384	
3337	0	33156	32808	38404	
3338	0	33176	32808	38404	
3339	0	33180	32824	38412	
3340	0	33176	32812	38392	
3341	0	33176	32784	38372	
3342	0	33172	32788	38384	
3343	0	33160	32792	38396	
3344	0	33160	32780	38408	
3345	0	33160	32772	38424	
3346	0	33164	32772	38396	
3347	0	33164	32760	38404	
3348	0	33160	32764	38368	
3349	0	33176	32768	38396	
3350	0	33168	32776	38408	
3351	0	33169	32768	38402	
3352	0	33168	32780	38412	
3353	0	33160	32768	38428	
3354	0	33160	32769	38420	
3355	0	33168	32760	38436	
3356	0	33188	32752	38416	
3357	0	33192	32768	38416	
3358	0	33200	32760	38428	
3359	0	33192	32760	38420	
3360	0	33212	32740	38432	
3361	0	33208	32752	38424	
3362	0	33204	32740	38424	
3363	0	33192	32724	38424	
3364	0	33176	32736	38428	
3365	0	33176	32716	38420	
3366	0	33168	32716	38416	
3367	0	33176	32718	38424	
3368	0	33178	32724	38448	
3369	0	33184	32704	38448	
3370	0	33181	32708	38448	
3371	0	33192	32708	38444	
3372	0	33192	32712	38440	
3373	0	33176	32724	38428	
3374	0	33176	32724	38456	
3375	0	33176	32740	38464	
3376	0	33178	32720	38464	
3377	0	33172	32732	38468	
3378	0	33188	32744	38460	
3379	0	33184	32740	38480	
3380	0	33184	32744	38496	
3381	0	33192	32733	38504	
3382	0	33192	32752	38504	
3383	0	33184	32744	38504	
3384	0	33172	32740	38500	
3385	0	33184	32744	38480	
3386	0	33172	32724	38484	
3387	0	33172	32736	38480	
3388	0	33172	32724	38480	
3389	0	33164	32720	38488	
3390	0	33188	32740	38492	
3391	0	33168	32752	38486	
3392	0	33160	32756	38488	
3393	0	33152	32752	38488	
3394	0	33168	32748	38512	
3395	0	33172	32756	38528	
3396	0	33172	32788	38534	
3397	0	33168	32788	38512	
3398	0	33176	32800	38536	
3399	0	33176	32793	38538	
3400	0	33176	32800	38536	
3401	0	33172	32792	38532	
3402	0	33168	32800	38516	
3403	0	33160	32792	38506	
3404	0	33144	32792	38512	
3405	0	33136	32780	38518	
3406	0	33136	32772	38516	
3407	0	33152	32768	38516	
3408	0	33140	32764	38528	
3409	0	33156	32772	38528	
3410	0	33152	32768	38528	
3411	0	33140	32772	38528	
3412	0	33136	32784	38536	
3413	0	33140	32784	38504	
3414	0	33144	32776	38492	
3415	0	33156	32784	38488	
3416	0	33140	32765	38484	
3417	0	33152	32792	38496	
3418	0	33152	32784	38488	
3419	0	33152	32808	38504	
3420	0	33148	32808	38488	
3421	0	33160	32816	38464	
3422	0	33160	32798	38484	
3423	0	33164	32796	38476	
3424	0	33148	32774	38468	
3425	0	33140	32768	38432	
3426	0	33160	32768	38412	
3427	0	33136	32748	38444	
3428	0	33156	32756	38440	
3429	0	33152	32744	38428	
3430	0	33156	32744	38420	
3431	0	33164	32760	38400	
3432	0	33156	32752	38408	
3433	0	33160	32760	38407	
3434	0	33152	32772	38392	
3435	0	33152	32772	38407	
3436	0	33152	32784	38396	
3437	0	33172	32764	38404	
3438	0	33164	32772	38400	
3439	0	33144	32788	38424	
3440	0	33136	32784	38412	
3441	0	33140	32780	38416	
3442	0	33144	32775	38376	
3443	0	33124	32768	38380	
3444	0	33128	32756	38396	
3445	0	33116	32756	38388	
3446	0	33126	32752	38388	
3447	0	33136	32756	38376	
3448	0	33122	32766	38396	
3449	0	33128	32772	38392	
3450	0	33129	32768	38412	
3451	0	33128	32772	38407	
3452	0	33120	32772	38392	
3453	0	33132	32760	38404	
3454	0	33128	32752	38404	
3455	0	33140	32764	38392	
3456	0	33128	32752	38408	
3457	0	33140	32764	38424	
3458	0	33128	32756	38416	
3459	0	33132	32772	38412	
3460	0	33116	32772	38404	
3461	0	33114	32752	38420	
3462	0	33104	32748	38424	
3463	0	33122	32748	38408	
3464	0	33120	32744	38360	
3465	0	33112	32745	38360	
3466	0	33104	32732	38372	
3467	0	33120	32760	38372	
3468	0	33108	32748	38372	
3469	0	33112	32756	38396	
3470	0	33116	32748	38412	
3471	0	33132	32756	38416	
3472	0	33112	32756	38404	
3473	0	33116	32760	38408	
3474	0	33124	32748	38388	
3475	0	33136	32760	38396	
3476	0	33132	32766	38376	
3477	0	33132	32772	38400	
3478	0	33140	32768	38432	
3479	0	33124	32784	38420	
3480	0	33136	32784	38424	
3481	0	33116	32756	38408	
3482	0	33108	32744	38404	
3483	0	33116	32728	38404	
3484	0	33120	32724	38388	
3485	0	33112	32724	38388	
3486	0	33112	32716	38380	
3487	0	33124	32728	38392	
3488	0	33120	32732	38384	
3489	0	33116	32740	38392	
3490	0	33120	32736	38408	
3491	0	33132	32744	38412	
3492	0	33128	32736	38412	
3493	0	33128	32737	38424	
3494	0	33128	32720	38424	
3495	0	33136	32740	38404	
3496	0	33136	32736	38400	
3497	0	33160	32744	38407	
3498	0	33156	32744	38396	
3499	0	33146	32741	38404	
3500	0	33140	32752	38416	
3501	0	33140	32744	38432	
3502	0	33128	32728	38440	
3503	0	33128	32736	38432	
3504	0	33128	32716	38420	
3505	0	33112	32736	38416	
3506	0	33136	32724	38388	
3507	0	33124	32754	38396	
3508	0	33128	32756	38416	
3509	0	33136	32772	38424	
3510	0	33128	32768	38420	
3511	0	33122	32796	38432	
3512	0	33124	32780	38432	
3513	0	33128	32770	38456	
3514	0	33112	32772	38468	
3515	0	33104	32792	38476	
3516	0	33112	32796	38476	
3517	0	33120	32800	38464	
3518	0	33124	32796	38444	
3519	0	33124	32788	38444	
3520	0	33128	32776	38464	
3521	0	33116	32768	38476	
3522	0	33116	32760	38480	
3523	0	33112	32754	38472	
3524	0	33108	32732	38496	
3525	0	33096	32728	38494	
3526	0	33100	32716	38488	
3527	0	33100	32732	38484	
3528	0	33100	32720	38504	
3529	0	33116	32724	38504	
3530	0	33128	32716	38500	
3531	0	33132	32716	38492	
3532	0	33128	32708	38496	
3533	0	33116	32728	38508	
3534	0	33124	32720	38492	
3535	0	33136	32720	38512	
3536	0	33136	32724	38524	
3537	0	33132	32716	38500	
3538	0	33132	32744	38480	
3539	0	33136	32744	38472	
3540	0	33148	32736	38496	
3541	0	33140	32744	38492	
3542	0	33140	32756	38488	
3543	0	33136	32752	38484	
3544	0	33128	32760	38464	
3545	0	33112	32768	38444	
3546	0	33100	32748	38440	
3547	0	33096	32760	38440	
3548	0	33092	32758	38456	
3549	0	33088	32775	38448	
3550	0	33092	32772	38456	
3551	0	33092	32780	38434	
3552	0	33100	32788	38404	
3553	0	33108	32788	38408	
3554	0	33116	32776	38384	
3555	0	33100	32778	38376	
3556	0	33096	32796	38368	
3557	0	33092	32788	38368	
3558	0	33112	32792	38368	
3559	0	33112	32788	38357	
3560	0	33124	32792	38360	
3561	0	33116	32788	38356	
3562	0	33128	32796	38348	
3563	0	33128	32782	38356	
3564	0	33116	32780	38348	
3565	0	33112	32796	38332	
3566	0	33108	32788	38328	
3567	0	33096	32812	38328	
3568	0	33092	32816	38320	
3569	0	33088	32824	38312	
3570	0	33088	32824	38292	
3571	0	33084	32840	38296	
3572	0	33080	32840	38332	
3573	0	33082	32844	38336	
3574	0	33076	32858	38336	
3575	0	33080	32848	38316	
3576	0	33088	32856	38312	
3577	0	33096	32848	38328	
3578	0	33108	32864	38348	
3579	0	33104	32856	38368	
3580	0	33096	32856	38372	
3581	0	33092	32856	38372	
3582	0	33088	32856	38360	
3583	0	33096	32834	38352	
3584	0	33088	32816	38336	
3585	0	33076	32824	38324	
3586	0	33092	32824	38312	
3587	0	33080	32824	38296	
3588	0	33084	32828	38304	
3589	0	33096	32824	38320	
3590	0	33088	32824	38312	
3591	0	33084	32832	38320	
3592	0	33080	32804	38328	
3593	0	33084	32800	38336	
3594	0	33084	32794	38312	
3595	0	33084	32772	38292	
3596	0	33084	32780	38300	
3597	0	33076	32772	38296	
3598	0	33084	32778	38328	
3599	0	33088	32768	38328	
3600	0	33088	32768	38330	
3601	0	33080	32766	38324	
3602	0	33080	32756	38348	
3603	0	33072	32752	38332	
3604	0	33088	32729	38344	
3605	0	33064	32732	38348	
3606	0	33056	32740	38328	
3607	0	33050	32736	38340	
3608	0	33056	32748	38364	
3609	0	33056	32752	38360	
3610	0	33072	32744	38362	
3611	0	33088	32748	38372	
3612	0	33080	32756	38376	
3613	0	33072	32774	38376	
3614	0	33080	32800	38372	
3615	0	33084	32812	38384	
3616	0	33080	32810	38356	
3617	0	33068	32826	38368	
3618	0	33084	32808	38396	
3619	0	33084	32808	38408	
3620	0	33088	32792	38396	
3621	0	33096	32800	38392	
3622	0	33080	32792	38380	
3623	0	33088	32781	38376	
3624	0	33076	32774	38358	
3625	0	33088	32764	38352	
3626	0	33084	32760	38312	
3627	0	33072	32764	38320	
3628	0	33080	32768	38348	
3629	0	33064	32780	38328	
3630	0	33082	32776	38336	
3631	0	33076	32780	38348	
3632	0	33096	32784	38392	
3633	0	33084	32788	38400	
3634	0	33090	32796	38404	
3635	0	33085	32792	38384	
3636	0	33080	32808	38372	
3637	0	33084	32792	38368	
3638	0	33096	32808	38392	
3639	0	33100	32796	38400	
3640	0	33096	32800	38408	
3641	0	33100	32792	38384	
3642	0	33093	32794	38404	
3643	0	33100	32792	38436	
3644	0	33100	32784	38448	
3645	0	33112	32788	38436	
3646	0	33104	32772	38420	
3647	0	33112	32792	38416	
3648	0	33104	32812	38440	
3649	0	33108	32824	38440	
3650	0	33112	32804	38440	
3651	0	33108	32808	38416	
3652	0	33100	32800	38428	
3653	0	33108	32812	38452	
3654	0	33092	32816	38472	
3655	0	33092	32800	38488	
3656	0	33096	32812	38504	
3657	0	33096	32801	38504	
3658	0	33114	32812	38488	
3659	0	33104	32808	38500	
3660	0	33096	32814	38532	
3661	0	33096	32800	38536	
3662	0	33100	32784	38528	
3663	0	33104	32772	38540	
3664	0	33105	32748	38556	
3665	0	33096	32748	38556	
3666	0	33088	32736	38540	
3667	0	33096	32748	38516	
3668	0	33088	32742	38536	
3669	0	33092	32756	38520	
3670	0	33108	32744	38528	
3671	0	33088	32752	38528	
3672	0	33100	32744	38516	
3673	0	33100	32744	38536	
3674	0	33088	32740	38544	
3675	0	33096	32728	38552	
3676	0	33108	32736	38560	
3677	0	33112	32726	38568	
3678	0	33116	32748	38592	
3679	0	33120	32752	38604	
3680	0	33120	32748	38624	
3681	0	33120	32748	38640	
3682	0	33124	32724	38632	
3683	0	33136	32720	38616	
3684	0	33128	32712	38584	
3685	0	33152	32692	38584	
3686	0	33140	32688	38536	
3687	0	33152	32680	38528	
3688	0	33140	32680	38488	
3689	0	33152	32696	38488	
3690	0	33156	32680	38464	
3691	0	33162	32696	38468	
3692	0	33152	32709	38484	
3693	0	33140	32720	38480	
3694	0	33144	32716	38496	
3695	0	33136	32728	38500	
3696	0	33104	32728	38512	
3697	0	33112	32724	38512	
3698	0	33096	32740	38520	
3699	0	33080	32744	38556	
3700	0	33076	32756	38568	
3701	0	33064	32753	38568	
3702	0	33072	32756	38540	
3703	0	33084	32768	38536	
3704	0	33076	32780	38504	
3705	0	33082	32804	38508	
3706	0	33072	32812	38484	
3707	0	33076	32808	38490	
3708	0	33076	32828	38512	
3709	0	33096	32828	38508	
3710	0	33096	32824	38516	
3711	0	33096	32832	38496	
3712	0	33096	32832	38466	
3713	0	33092	32820	38452	
3714	0	33096	32816	38416	
3715	0	33112	32808	38396	
3716	0	33106	32800	38420	
3717	0	33096	32804	38432	
3718	0	33096	32792	38420	
3719	0	33096	32792	38428	
3720	0	33096	32788	38416	
3721	0	33084	32788	38424	
3722	0	33076	32788	38424	
3723	0	33080	32796	38416	
3724	0	33076	32792	38407	
3725	0	33080	32812	38396	
3726	0	33080	32816	38400	
3727	0	33074	32824	38404	
3728	0	33082	32840	38380	
3729	0	33088	32840	38360	
3730	0	33092	32852	38356	
3731	0	33104	32840	38360	
3732	0	33092	32836	38360	
3733	0	33100	32840	38348	
3734	0	33088	32828	38368	
3735	0	33088	32828	38364	
3736	0	33096	32816	38360	
3737	0	33096	32828	38368	
3738	0	33104	32824	38380	
3739	0	33104	32828	38392	
3740	0	33096	32828	38356	
3741	0	33092	32812	38368	
3742	0	33100	32832	38336	
3743	0	33096	32828	38332	
3744	0	33096	32824	38312	
3745	0	33084	32804	38316	
3746	0	33096	32804	38332	
3747	0	33088	32796	38340	
3748	0	33084	32816	38368	
3749	0	33092	32812	38384	
3750	0	33080	32816	38380	
3751	0	33072	32818	38396	
3752	0	33088	32824	38388	
3753	0	33086	32832	38398	
3754	0	33096	32840	38384	
3755	0	33088	32824	38384	
3756	0	33092	32824	38400	
3757	0	33096	32828	38384	
3758	0	33092	32824	38400	
3759	0	33108	32832	38420	
3760	0	33104	32824	38404	
3761	0	33090	32824	38384	
3762	0	33108	32812	38384	
3763	0	33120	32808	38384	
3764	0	33112	32804	38364	
3765	0	33112	32816	38384	
3766	0	33096	32800	38352	
3767	0	33088	32816	38368	
3768	0	33096	32804	38376	
3769	0	33100	32816	38380	
3770	0	33112	32812	38400	
3771	0	33108	32808	38392	
3772	0	33112	32808	38396	
3773	0	33108	32812	38356	
3774	0	33106	32796	38376	
3775	0	33120	32800	38388	
3776	0	33124	32793	38384	
3777	0	33124	32800	38400	
3778	0	33136	32792	38400	
3779	0	33120	32796	38400	
3780	0	33128	32800	38404	
3781	0	33120	32772	38398	
3782	0	33116	32775	38400	
3783	0	33108	32784	38400	
3784	0	33100	32768	38392	
3785	0	33114	32760	38404	
3786	0	33112	32772	38380	
3787	0	33116	32764	38376	
3788	0	33108	32774	38392	
3789	0	33108	32776	38388	
3790	0	33124	32772	38364	
3791	0	33132	32780	38364	
3792	0	33124	32780	38368	
3793	0	33124	32788	38368	
3794	0	33108	32792	38352	
3795	0	33120	32808	38360	
3796	0	33120	32808	38376	
3797	0	33120	32808	38392	
3798	0	33138	32812	38400	
3799	0	33140	32820	38400	
3800	0	33144	32816	38400	
3801	0	33136	32820	38404	
3802	0	33120	32820	38416	
3803	0	33112	32832	38380	
3804	0	33116	32824	38356	
3805	0	33106	32824	38352	
3806	0	33108	32812	38360	
3807	0	33092	32820	38352	
3808	0	33108	32828	38368	
3809	0	33088	32840	38384	
3810	0	33100	32844	38388	
3811	0	33100	32848	38392	
3812	0	33100	32856	38388	
3813	0	33104	32848	38368	
3814	0	33108	32848	38352	
3815	0	33112	32864	38370	
3816	0	33112	32848	38376	
3817	0	33116	32868	38372	
3818	0	33104	32860	38376	
3819	0	33116	32864	38356	
3820	0	33116	32872	38373	
3821	0	33120	32860	38362	
3822	0	33120	32860	38344	
3823	0	33108	32864	38362	
3824	0	33128	32856	38360	
3825	0	33124	32856	38360	
3826	0	33128	32852	38364	
3827	0	33120	32840	38340	
3828	0	33124	32832	38332	
3829	0	33108	32840	38356	
3830	0	33116	32840	38340	
3831	0	33112	32840	38340	
3832	0	33112	32844	38348	
3833	0	33108	32840	38344	
3834	0	33108	32860	38332	
3835	0	33096	32860	38340	
3836	0	33116	32872	38338	
3837	0	33128	32864	38368	
3838	0	33120	32864	38364	
3839	0	33124	32884	38368	
3840	0	33116	32868	38370	
3841	0	33128	32884	38360	
3842	0	33128	32860	38360	
3843	0	33128	32864	38384	
3844	0	33120	32872	38388	
3845	0	33112	32868	38372	
3846	0	33108	32864	38368	
3847	0	33116	32864	38340	
3848	0	33100	32864	38348	
3849	0	33120	32857	38360	
3850	0	33112	32880	38368	
3851	0	33112	32868	38384	
3852	0	33124	32860	38392	
3853	0	33132	32864	38392	
3854	0	33112	32864	38380	
3855	0	33104	32858	38384	
3856	0	33120	32880	38392	
3857	0	33112	32880	38392	
3858	0	33108	32896	38400	
3859	0	33108	32900	38388	
3860	0	33112	32896	38408	
3861	0	33104	32916	38428	
3862	0	33112	32896	38428	
3863	0	33112	32896	38420	
3864	0	33108	32892	38416	
3865	0	33080	32916	38392	
3866	0	33084	32912	38404	
3867	0	33084	32906	38432	
3868	0	33096	32900	38420	
3869	0	33076	32892	38416	
3870	0	33080	32876	38416	
3871	0	33104	32892	38424	
3872	0	33088	32888	38428	
3873	0	33092	32892	38428	
3874	0	33096	32868	38432	
3875	0	33100	32872	38428	
3876	0	33096	32860	38436	
3877	0	33104	32884	38436	
3878	0	33100	32888	38440	
3879	0	33100	32904	38428	
3880	0	33104	32896	38436	
3881	0	33104	32880	38412	
3882	0	33112	32880	38428	
3883	0	33100	32884	38444	
3884	0	33108	32860	38444	
3885	0	33096	32848	38424	
3886	0	33082	32852	38428	
3887	0	33092	32856	38420	
3888	0	33096	32852	38412	
3889	0	33088	32856	38404	
3890	0	33088	32840	38424	
3891	0	33104	32832	38400	
3892	0	33100	32824	38428	
3893	0	33112	32810	38432	
3894	0	33108	32804	38440	
3895	0	33112	32800	38440	
3896	0	33100	32788	38436	
3897	0	33096	32792	38440	
3898	0	33088	32800	38452	
3899	0	33108	32792	38448	
3900	0	33137	32780	38436	
3901	0	33136	32768	38424	
3902	0	33128	32774	38420	
3903	0	33120	32766	38408	
3904	0	33112	32768	38396	
3905	0	33100	32756	38400	
3906	0	33104	32752	38380	
3907	0	33116	32740	38392	
3908	0	33124	32732	38420	
3909	0	33114	32724	38420	
3910	0	33128	32736	38440	
3911	0	33120	32744	38448	
3912	0	33112	32744	38444	
3913	0	33112	32752	38472	
3914	0	33124	32764	38464	
3915	0	33120	32750	38440	
3916	0	33106	32748	38420	
3917	0	33124	32744	38424	
3918	0	33120	32744	38412	
3919	0	33124	32758	38424	
3920	0	33112	32752	38452	
3921	0	33116	32752	38444	
3922	0	33116	32748	38440	
3923	0	33124	32744	38432	
3924	0	33128	32744	38420	
3925	0	33124	32748	38436	
3926	0	33120	32756	38432	
3927	0	33108	32740	38420	
3928	0	33116	32740	38420	
3929	0	33120	32760	38388	
3930	0	33112	32750	38384	
3931	0	33124	32752	38396	
3932	0	33112	32760	38376	
3933	0	33116	32756	38380	
3934	0	33104	32768	38376	
3935	0	33104	32780	38396	
3936	0	33112	32770	38384	
3937	0	33116	32764	38406	
3938	0	33120	32774	38416	
3939	0	33120	32784	38416	
3940	0	33116	32796	38428	
3941	0	33112	32804	38408	
3942	0	33120	32800	38396	
3943	0	33104	32816	38396	
3944	0	33108	32800	38388	
3945	0	33104	32816	38376	
3946	0	33088	32808	38388	
3947	0	33088	32816	38386	
3948	0	33084	32812	38406	
3949	0	33092	32824	38392	
3950	0	33100	32824	38404	
3951	0	33096	32808	38380	
3952	0	33100	32816	38400	
3953	0	33100	32828	38416	
3954	0	33108	32816	38424	
3955	0	33100	32800	38424	
3956	0	33084	32808	38416	
3957	0	33100	32832	38420	
3958	0	33080	32848	38412	
3959	0	33092	32840	38420	
3960	0	33104	32844	38424	
3961	0	33092	32838	38424	
3962	0	33100	32852	38436	
3963	0	33088	32832	38416	
3964	0	33096	32828	38412	
3965	0	33076	32808	38416	
3966	0	33080	32800	38440	
3967	0	33064	32788	38436	
3968	0	33068	32796	38440	
3969	0	33088	32788	38448	
3970	0	33112	32772	38444	
3971	0	33104	32772	38432	
3972	0	33108	32768	38444	
3973	0	33096	32764	38432	
3974	0	33096	32784	38432	
3975	0	33096	32774	38440	
3976	0	33112	32768	38460	
3977	0	33098	32776	38464	
3978	0	33104	32772	38450	
3979	0	33120	32788	38456	
3980	0	33108	32796	38436	
3981	0	33108	32793	38408	
3982	0	33104	32796	38420	
3983	0	33080	32800	38424	
3984	0	33072	32785	38432	
3985	0	33080	32768	38420	
3986	0	33080	32760	38400	
3987	0	33080	32756	38385	
3988	0	33084	32764	38404	
3989	0	33080	32772	38404	
3990	0	33072	32768	38428	
3991	0	33068	32760	38430	
3992	0	33080	32776	38414	
3993	0	33072	32772	38428	
3994	0	33064	32780	38440	
3995	0	33056	32784	38456	
3996	0	33060	32790	38433	
3997	0	33064	32808	38432	
3998	0	33064	32812	38432	
3999	0	33072	32808	38420	
4000	0	33068	32816	38452	
4001	0	33064	32804	38452	
4002	0	33064	32804	38440	
4003	0	33068	32804	38444	
4004	0	33080	32788	38476	
4005	0	33076	32784	38492	
4006	0	33064	32768	38488	
4007	0	33072	32760	38452	
4008	0	33076	32764	38448	
4009	0	33092	32752	38440	
4010	0	33096	32784	38428	
4011	0	33096	32804	38400	
4012	0	33092	32820	38368	
4013	0	33088	32832	38362	
4014	0	33068	32852	38348	
4015	0	33064	32840	38344	
4016	0	33056	32844	38376	
4017	0	33044	32868	38380	
4018	0	33036	32876	38392	
4019	0	33040	32884	38404	
4020	0	33028	32884	38404	
4021	0	33040	32880	38432	
4022	0	33032	32868	38432	
4023	0	33032	32888	38444	
4024	0	33008	32872	38464	
4025	0	33004	32868	38458	
4026	0	32988	32872	38472	
4027	0	33000	32868	38496	
4028	0	33008	32852	38472	
4029	0	33012	32848	38476	
4030	0	33020	32836	38472	
4031	0	33036	32840	38456	
4032	0	33040	32848	38456	
4033	0	33040	32848	38449	
4034	0	33048	32848	38416	
4035	0	33028	32868	38412	
4036	0	33032	32868	38400	
4037	0	33020	32892	38400	
4038	0	33008	32900	38420	
4039	0	33008	32890	38446	
4040	0	33016	32884	38488	
4041	0	33000	32876	38492	
4042	0	33000	32892	38504	
4043	0	32980	32864	38504	
4044	0	32976	32888	38504	
4045	0	32992	32868	38520	
4046	0	32980	32898	38526	
4047	0	32964	32901	38508	
4048	0	32980	32904	38524	
4049	0	32980	32916	38536	
4050	0	32968	32908	38552	
4051	0	32964	32916	38568	
4052	0	32954	32916	38584	
4053	0	32964	32916	38600	
4054	0	32976	32892	38592	
4055	0	32972	32880	38576	
4056	0	32972	32876	38564	
4057	0	32984	32896	38556	
4058	0	32992	32896	38532	
4059	0	32994	32900	38552	
4060	0	32980	32904	38548	
4061	0	32960	32908	38552	
4062	0	32956	32920	38556	
4063	0	32928	32928	38570	
4064	0	32928	32920	38592	
4065	0	32924	32936	38592	
4066	0	32912	32932	38608	
4067	0	32928	32928	38584	
4068	0	32928	32936	38592	
4069	0	32940	32932	38624	
4070	0	32932	32940	38652	
4071	0	32936	32940	38656	
4072	0	32940	32944	38652	
4073	0	32936	32952	38660	
4074	0	32944	32952	38648	
4075	0	32928	32968	38672	
4076	0	32920	32972	38672	
4077	0	32912	32976	38668	
4078	0	32930	32972	38676	
4079	0	32920	32988	38676	
4080	0	32928	32988	38696	
4081	0	32920	32976	38684	
4082	0	32912	32976	38696	
4083	0	32908	32960	38684	
4084	0	32904	32960	38696	
4085	0	32892	32932	38700	
4086	0	32884	32936	38700	
4087	0	32888	32904	38689	
4088	0	32888	32904	38700	
4089	0	32896	32904	38708	
4090	0	32896	32908	38704	
4091	0	32896	32900	38708	
4092	0	32876	32920	38696	
4093	0	32876	32920	38684	
4094	0	32880	32928	38660	
4095	0	32880	32920	38656	
4096	0	32874	32912	38640	
4097	0	32876	32924	38632	
4098	0	32880	32950	38604	
4099	0	32904	32944	38584	
4100	0	32904	32952	38584	
4101	0	32896	32952	38596	
4102	0	32912	32964	38568	
4103	0	32912	32952	38572	
4104	0	32896	32956	38560	
4105	0	32904	32964	38536	
4106	0	32896	32960	38516	
4107	0	32880	32968	38488	
4108	0	32888	32976	38496	
4109	0	32884	32988	38464	
4110	0	32880	32994	38468	
4111	0	32868	32992	38484	
4112	0	32876	32976	38472	
4113	0	32864	32984	38460	
4114	0	32860	32992	38492	
4115	0	32860	32972	38456	
4116	0	32872	32968	38474	
4117	0	32874	32972	38441	
4118	0	32864	32992	38464	
4119	0	32872	33000	38464	
4120	0	32876	33008	38444	
4121	0	32864	33012	38424	
4122	0	32884	33020	38400	
4123	0	32872	33008	38410	
4124	0	32860	33024	38412	
4125	0	32840	33024	38398	
4126	0	32836	33028	38388	
4127	0	32836	33012	38392	
4128	0	32840	33004	38380	
4129	0	32840	33012	38388	
4130	0	32840	33010	38364	
4131	0	32848	33020	38356	
4132	0	32844	33016	38360	
4133	0	32840	33032	38368	
4134	0	32836	33028	38360	
4135	0	32844	33048	38360	
4136	0	32852	33048	38340	
4137	0	32852	33048	38320	
4138	0	32848	33064	38316	
4139	0	32832	33074	38320	
4140	0	32826	33084	38312	
4141	0	32828	33092	38298	
4142	0	32832	33080	38296	
4143	0	32824	33080	38308	
4144	0	32824	33056	38328	
4145	0	32804	33064	38296	
4146	0	32784	33048	38304	
4147	0	32784	33032	38312	
4148	0	32792	33040	38328	
4149	0	32800	33040	38328	
4150	0	32796	33052	38360	
4151	0	32808	33068	38356	
4152	0	32800	33068	38368	
4153	0	32808	33072	38352	
4154	0	32800	33080	38352	
4155	0	32792	33084	38352	
4156	0	32796	33080	38368	
4157	0	32796	33088	38380	
4158	0	32784	33092	38392	
4159	0	32800	33084	38392	
4160	0	32810	33100	38392	
4161	0	32804	33112	38376	
4162	0	32800	33120	38380	
4163	0	32792	33124	38364	
4164	0	32784	33124	38364	
4165	0	32784	33116	38372	
4166	0	32770	33092	38368	
4167	0	32764	33096	38364	
4168	0	32776	33112	38368	
4169	0	32768	33112	38380	
4170	0	32776	33108	38388	
4171	0	32792	33108	38388	
4172	0	32776	33108	38396	
4173	0	32776	33116	38400	
4174	0	32776	33112	38404	
4175	0	32776	33104	38404	
4176	0	32784	33120	38428	
4177	0	32792	33120	38448	
4178	0	32784	33124	38440	
4179	0	32800	33124	38456	
4180	0	32808	33122	38448	
4181	0	32812	33096	38456	
4182	0	32820	33084	38464	
4183	0	32812	33072	38448	
4184	0	32808	33056	38416	
4185	0	32808	33040	38432	
4186	0	32800	33024	38400	
4187	0	32824	33000	38424	
4188	0	32820	32992	38448	
4189	0	32804	33012	38472	
4190	0	32808	32992	38477	
4191	0	32808	32992	38468	
4192	0	32808	32988	38472	
4193	0	32808	32988	38468	
4194	0	32812	32968	38488	
4195	0	32800	32956	38496	
4196	0	32812	32948	38464	
4197	0	32824	32945	38480	
4198	0	32840	32948	38468	
4199	0	32844	32948	38478	
4200	0	32856	32960	38460	
4201	0	32852	32976	38444	
4202	0	32848	32980	38432	
4203	0	32832	32984	38448	
4204	0	32832	32976	38440	
4205	0	32816	32968	38432	
4206	0	32824	32960	38408	
4207	0	32816	32984	38400	
4208	0	32824	33000	38412	
4209	0	32824	33012	38408	
4210	0	32824	33024	38404	
4211	0	32828	33028	38384	
4212	0	32824	33048	38380	
4213	0	32833	33052	38378	
4214	0	32836	33068	38380	
4215	0	32832	33074	38368	
4216	0	32824	33072	38360	
4217	0	32824	33076	38376	
4218	0	32824	33088	38360	
4219	0	32832	33100	38344	
4220	0	32848	33100	38356	
4221	0	32836	33096	38336	
4222	0	32836	33114	38296	
4223	0	32834	33118	38276	
4224	0	32904	33188	38232	
4225	0	32984	33336	38232	
4226	0	32994	33370	38168	
4227	0	32944	33312	38144	
4228	0	32884	33272	38156	
4229	0	32860	33224	38148	
4230	0	32872	33220	38196	
4231	0	32884	33232	38224	
4232	0	32872	33208	38276	
4233	0	32832	33148	38312	
4234	0	32772	33112	38300	
4235	0	32748	33104	38300	
4236	0	32756	33152	38244	
4237	0	32776	33188	38200	
4238	0	32800	33216	38180	
4239	0	32828	33248	38168	
4240	0	32836	33246	38168	
4241	0	32828	33248	38184	
4242	0	32808	33240	38192	
4243	0	32808	33224	38200	
4244	0	32812	33230	38192	
4245	0	32820	33220	38192	
4246	0	32796	33208	38196	
4247	0	32796	33212	38216	
4248	0	32796	33204	38216	
4249	0	32808	33208	38240	
4250	0	32812	33212	38208	
4251	0	32824	33204	38188	
4252	0	32824	33220	38208	
4253	0	32856	33184	38220	
4254	0	32844	33180	38252	
4255	0	32852	33180	38240	
4256	0	32844	33190	38232	
4257	0	32828	33208	38268	
4258	0	32860	33160	38314	
4259	0	33088	33148	38584	
4260	0	33044	33156	38704	
4261	0	32892	33052	38632	
4262	0	32840	33004	38576	
4263	0	32761	32997	38552	
4264	0	32764	33032	38472	
4265	0	32764	33060	38480	
4266	0	32784	33064	38452	
4267	0	32796	33076	38420	
4268	0	32788	33060	38430	
4269	0	32864	33108	38428	
4270	0	32876	33132	38448	
4271	0	32844	33120	38416	
4272	0	32876	33160	38388	
4273	0	32896	33156	38384	
4274	0	32808	33108	38480	
4275	0	32728	33092	38524	
4276	0	32788	33160	38426	
4277	0	32740	33164	38548	
4278	0	32860	33248	38424	
4279	0	32840	33268	38412	
4280	0	32796	33216	38464	
4281	0	32780	33208	38440	
4282	0	32804	33252	38348	
4283	0	32816	33328	38148	
4284	0	32204	33512	36924	
4285	0	33120	33328	38676	
4286	0	33168	33160	39132	
4287	0	32892	33016	38904	
4288	0	32764	32912	38720	
4289	0	32716	32896	38660	
4290	0	32700	32924	38648	
4291	0	32712	33008	38632	
4292	0	32716	33080	38602	
4293	0	32696	33108	38576	
4294	0	32680	33124	38568	
4295	0	32664	33160	38528	
4296	0	32672	33192	38528	
4297	0	32688	33202	38484	
4298	0	32708	33224	38452	
4299	0	32720	33240	38440	
4300	0	32736	33260	38440	
4301	0	32732	33272	38448	
4302	0	32724	33280	38476	
4303	0	32708	33276	38480	
4304	0	32680	33276	38464	
4305	0	32648	33296	38457	
4306	0	32632	33320	38460	
4307	0	32628	33324	38424	
4308	0	32620	33336	38412	
4309	0	32640	33344	38408	
4310	0	32624	33326	38392	
4311	0	32612	33328	38404	
4312	0	32608	33322	38388	
4313	0	32608	33336	38392	
4314	0	32602	33328	38388	
4315	0	32624	33340	38376	
4316	0	32620	33352	38352	
4317	0	32640	33376	38384	
4318	0	32640	33396	38384	
4319	0	32632	33420	38400	
4320	0	32632	33428	38360	
4321	0	32632	33432	38340	
4322	0	32648	33440	38348	
4323	0	32644	33456	38344	
4324	0	32636	33466	38340	
4325	0	32632	33472	38320	
4326	0	32636	33472	38300	
4327	0	32640	33512	38292	
4328	0	32640	33540	38292	
4329	0	32628	33552	38280	
4330	0	32624	33564	38256	
4331	0	32632	33576	38208	
4332	0	32628	33604	38192	
4333	0	32624	33620	38160	
4334	0	32616	33608	38152	
4335	0	32592	33598	38128	
4336	0	32584	33580	38120	
4337	0	32556	33570	38106	
4338	0	32560	33560	38088	
4339	0	32548	33528	38080	
4340	0	32548	33520	38068	
4341	0	32532	33500	38048	
4342	0	32528	33492	38040	
4343	0	32540	33480	38036	
4344	0	32548	33468	38060	
4345	0	32552	33460	38088	
4346	0	32540	33452	38080	
4347	0	32552	33468	38112	
4348	0	32560	33468	38124	
4349	0	32552	33464	38124	
4350	0	32548	33484	38148	
4351	0	32552	33484	38168	
4352	0	32532	33476	38160	
4353	0	32540	33464	38180	
4354	0	32520	33456	38172	
4355	0	32516	33448	38168	
4356	0	32516	33424	38168	
4357	0	32508	33436	38168	
4358	0	32514	33434	38152	
4359	0	32528	33432	38144	
4360	0	32540	33416	38132	
4361	0	32526	33424	38144	
4362	0	32536	33432	38144	
4363	0	32532	33452	38132	
4364	0	32528	33472	38136	
4365	0	32536	33489	38172	
4366	0	32536	33512	38172	
4367	0	32548	33540	38168	
4368	0	32560	33568	38176	
4369	0	32568	33588	38196	
4370	0	32584	33632	38226	
4371	0	32584	33648	38248	
4372	0	32596	33684	38272	
4373	0	32600	33712	38272	
4374	0	32602	33728	38264	
4375	0	32592	33764	38252	
4376	0	32608	33784	38276	
4377	0	32600	33792	38276	
4378	0	32596	33812	38288	
4379	0	32596	33816	38320	
4380	0	32572	33824	38272	
4381	0	32540	33856	38072	
4382	0	32580	33900	38048	
4383	0	32616	33888	38096	
4384	0	32632	33828	38160	
4385	0	32644	33768	38192	
4386	0	32632	33724	38232	
4387	0	32616	33692	38264	
4388	0	32608	33664	38288	
4389	0	32600	33660	38300	
4390	0	32584	33644	38312	
4391	0	32576	33632	38324	
4392	0	32572	33616	38336	
4393	0	32560	33608	38344	
4394	0	32560	33628	38380	
4395	0	32540	33632	38400	
4396	0	32536	33652	38404	
4397	0	32544	33648	38384	
4398	0	32540	33672	38380	
4399	0	32556	33680	38372	
4400	0	32556	33688	38380	
4401	0	32560	33708	38368	
4402	0	32560	33716	38384	
4403	0	32548	33724	38348	
4404	0	32536	33736	38344	
4405	0	32544	33744	38344	
4406	0	32552	33736	38328	
4407	0	32538	33724	38316	
4408	0	32544	33728	38296	
4409	0	32560	33712	38280	
4410	0	32560	33712	38248	
4411	0	32564	33708	38280	
4412	0	32564	33708	38252	
4413	0	32572	33716	38264	
4414	0	32576	33716	38260	
4415	0	32572	33728	38264	
4416	0	32572	33728	38240	
4417	0	32568	33732	38216	
4418	0	32588	33736	38216	
4419	0	32592	33736	38204	
4420	0	32592	33724	38192	
4421	0	32592	33736	38184	
4422	0	32604	33720	38156	
4423	0	32592	33732	38152	
4424	0	32592	33736	38160	
4425	0	32588	33728	38178	
4426	0	32572	33736	38184	
4427	0	32576	33732	38176	
4428	0	32561	33744	38179	
4429	0	32548	33760	38208	
4430	0	32548	33752	38236	
4431	0	32548	33744	38236	
4432	0	32544	33736	38268	
4433	0	32548	33740	38252	
4434	0	32552	33744	38260	
4435	0	32544	33760	38244	
4436	0	32560	33748	38252	
4437	0	32568	33760	38228	
4438	0	32588	33768	38260	
4439	0	32576	33768	38264	
4440	0	32584	33744	38268	
4441	0	32580	33736	38244	
4442	0	32576	33724	38204	
4443	0	32572	33724	38208	
4444	0	32568	33724	38184	
4445	0	32580	33716	38204	
4446	0	32564	33716	38216	
4447	0	32556	33712	38224	
4448	0	32564	33696	38228	
4449	0	32576	33696	38252	
4450	0	32580	33728	38272	
4451	0	32584	33748	38284	
4452	0	32600	33776	38268	
4453	0	32624	33800	38260	
4454	0	32636	33832	38248	
4455	0	32656	33844	38248	
4456	0	32664	33868	38208	
4457	0	32668	33888	38212	
4458	0	32674	33900	38228	
4459	0	32680	33914	38212	
4460	0	32676	33920	38216	
4461	0	32692	33908	38184	
4462	0	32684	33912	38176	
4463	0	32692	33900	38160	
4464	0	32708	33872	38130	
4465	0	32696	33860	38132	
4466	0	32698	33844	38144	
4467	0	32696	33860	38144	
4468	0	32700	33856	38160	
4469	0	32712	33832	38164	
4470	0	32712	33828	38168	
4471	0	32704	33840	38156	
4472	0	32712	33824	38144	
4473	0	32720	33816	38148	
4474	0	32720	33816	38136	
4475	0	32720	33816	38132	
4476	0	32696	33808	38124	
4477	0	32712	33812	38128	
4478	0	32712	33816	38132	
4479	0	32716	33828	38144	
4480	0	32728	33816	38132	
4481	0	32720	33818	38136	
4482	0	32716	33812	38144	
4483	0	32724	33808	38124	
4484	0	32720	33804	38144	
4485	0	32712	33784	38156	
4486	0	32712	33776	38164	
4487	0	32708	33798	38176	
4488	0	32704	33816	38176	
4489	0	32724	33832	38204	
4490	0	32716	33864	38244	
4491	0	32736	33872	38268	
4492	0	32712	33900	38272	
4493	0	32732	33904	38280	
4494	0	32736	33912	38316	
4495	0	32724	33912	38312	
4496	0	32720	33912	38336	
4497	0	32708	33920	38364	
4498	0	32720	33920	38364	
4499	0	32728	33924	38380	
4500	0	32716	33924	38384	
4501	0	32704	33936	38392	
4502	0	32696	33952	38396	
4503	0	32680	33956	38404	
4504	0	32680	33968	38412	
4505	0	32676	33973	38424	
4506	0	32672	33980	38424	
4507	0	32668	33984	38404	
4508	0	32664	34000	38416	
4509	0	32672	33984	38424	
4510	0	32668	34004	38404	
4511	0	32664	34012	38386	
4512	0	32664	34008	38388	
4513	0	32656	34020	38368	
4514	0	32652	34028	38381	
4515	0	32660	34040	38380	
4516	0	32666	34036	38384	
4517	0	32652	34048	38384	
4518	0	32672	34052	38376	
4519	0	32668	34048	38372	
4520	0	32660	34056	38368	
4521	0	32656	34044	38362	
4522	0	32656	34036	38384	
4523	0	32644	34004	38376	
4524	0	32640	34004	38354	
4525	0	32632	33976	38342	
4526	0	32636	33972	38336	
4527	0	32628	33968	38308	
4528	0	32626	33972	38308	
4529	0	32640	33968	38296	
4530	0	32648	33960	38296	
4531	0	32656	33948	38280	
4532	0	32644	33956	38276	
4533	0	32644	33952	38288	
4534	0	32624	33952	38288	
4535	0	32616	33946	38272	
4536	0	32616	33940	38280	
4537	0	32624	33940	38272	
4538	0	32632	33944	38232	
4539	0	32628	33953	38232	
4540	0	32632	33964	38240	
4541	0	32640	33956	38260	
4542	0	32624	33972	38256	
4543	0	32632	33968	38248	
4544	0	32624	33980	38220	
4545	0	32624	33972	38228	
4546	0	32612	33960	38212	
4547	0	32612	33960	38216	
4548	0	32612	33972	38192	
4549	0	32624	33980	38168	
4550	0	32624	33970	38176	
4551	0	32624	33960	38220	
4552	0	32604	33980	38224	
4553	0	32600	33996	38228	
4554	0	32604	33972	38248	
4555	0	32608	33968	38228	
4556	0	32608	33972	38240	
4557	0	32608	33972	38236	
4558	0	32600	33972	38244	
4559	0	32604	33976	38252	
4560	0	32592	33976	38256	
4561	0	32584	33984	38264	
4562	0	32572	33976	38260	
4563	0	32568	33976	38276	
4564	0	32556	33960	38256	
4565	0	32552	33960	38268	
4566	0	32546	33940	38264	
4567	0	32536	33936	38240	
4568	0	32536	33956	38252	
4569	0	32540	33952	38244	
4570	0	32540	33968	38260	
4571	0	32530	33960	38240	
4572	0	32544	33964	38240	
4573	0	32552	33972	38248	
4574	0	32560	33980	38220	
4575	0	32570	33992	38216	
4576	0	32560	33996	38204	
4577	0	32560	34016	38216	
4578	0	32576	34016	38216	
4579	0	32580	34012	38196	
4580	0	32588	34008	38212	
4581	0	32584	34032	38220	
4582	0	32568	34032	38228	
4583	0	32568	34036	38194	
4584	0	32560	34032	38196	
4585	0	32572	34016	38168	
4586	0	32568	34028	38180	
4587	0	32566	34032	38184	
4588	0	32564	34036	38200	
4589	0	32570	34052	38196	
4590	0	32564	34052	38216	
4591	0	32568	34048	38232	
4592	0	32568	34052	38208	
4593	0	32564	34048	38218	
4594	0	32570	34020	38216	
4595	0	32564	34042	38212	
4596	0	32568	34044	38208	
4597	0	32568	34052	38208	
4598	0	32576	34056	38228	
4599	0	32572	34080	38252	
4600	0	32580	34072	38244	
4601	0	32576	34076	38260	
4602	0	32564	34072	38272	
4603	0	32568	34080	38268	
4604	0	32564	34080	38256	
4605	0	32552	34076	38228	
4606	0	32528	34080	38204	
4607	0	32536	34084	38204	
4608	0	32552	34084	38220	
4609	0	32544	34104	38204	
4610	0	32544	34100	38220	
4611	0	32532	34136	38228	
4612	0	32540	34144	38228	
4613	0	32544	34168	38240	
4614	0	32540	34172	38248	
4615	0	32548	34200	38248	
4616	0	32532	34208	38232	
4617	0	32532	34208	38228	
4618	0	32528	34240	38232	
4619	0	32528	34248	38234	
4620	0	32528	34272	38248	
4621	0	32536	34292	38240	
4622	0	32528	34311	38224	
4623	0	32524	34332	38220	
