# OpenSignals Text File Format. Version 1
# {"00:07:80:0F:2F:AD": {"position": 0, "device": "biosignalsplux", "device name": "00:07:80:0F:2F:AD", "device connection": "BTH00:07:80:0F:2F:AD", "sampling rate": 1000, "resolution": [16, 16, 16, 16, 16], "firmware version": 775, "comments": "", "keywords": "", "mode": 0, "sync interval": 2, "date": "2021-10-8", "time": "11:29:52.318", "channels": [1, 2, 3, 4, 5], "sensor": ["XYZ", "XYZ", "XYZ", "FSRIII", "EMG"], "label": ["CH1", "CH2", "CH3", "CH4", "CH5"], "column": ["nSeq", "DI", "CH1", "CH2", "CH3", "CH4", "CH5"], "special": [{"SpO2": [80, 40, 5, 4, 3, 3]}, {"SpO2": [80, 40, 5, 4, 3, 3]}, {"SpO2": [80, 40, 5, 4, 3, 3]}, {"SpO2": [80, 40, 5, 4, 3, 3]}, {"SpO2": [80, 40, 5, 4, 3, 3]}, {"SpO2": [80, 40, 5, 4, 3, 3]}, {"SpO2": [80, 40, 5, 4, 3, 3]}, {"SpO2": [80, 40, 5, 4, 3, 3]}], "digital IO": [0, 1], "sleeve color": ["white", "white", "white", "black", "yellow"], "convertedValues": 0}}
# EndOfHeader
0	0	34404	32488	38268	12	33335	
1	0	34410	32494	38280	12	33226	
2	0	34418	32479	38261	10	33468	
3	0	34428	32484	38264	12	33256	
4	0	34432	32484	38257	10	33140	
5	0	34440	32480	38265	11	33260	
6	0	34440	32488	38280	10	32464	
7	0	34440	32510	38279	11	32134	
8	0	34426	32495	38280	11	32284	
9	0	34424	32500	38305	12	32336	
10	0	34424	32502	38298	11	32437	
11	0	34416	32502	38297	11	32584	
12	0	34424	32502	38308	12	32597	
13	0	34417	32484	38293	11	32608	
14	0	34400	32488	38281	12	32662	
15	0	34392	32504	38276	11	32482	
16	0	34360	32495	38270	11	32296	
17	0	34360	32488	38269	11	32162	
18	0	34376	32476	38258	11	32158	
19	0	34366	32468	38252	11	32806	
20	0	34368	32456	38220	12	33332	
21	0	34356	32456	38196	12	33345	
22	0	34348	32449	38180	11	33244	
23	0	34356	32430	38174	13	33424	
24	0	34349	32434	38160	10	33652	
25	0	34334	32431	38144	12	33076	
26	0	34328	32440	38122	12	32448	
27	0	34334	32434	38133	10	32078	
28	0	34328	32460	38136	11	32400	
29	0	34328	32468	38136	11	32300	
30	0	34338	32469	38140	11	32604	
31	0	34336	32485	38138	12	32632	
32	0	34365	32485	38160	11	32612	
33	0	34380	32494	38149	10	32660	
34	0	34378	32506	38156	11	32644	
35	0	34394	32516	38164	11	32624	
36	0	34402	32518	38169	10	32138	
37	0	34406	32512	38180	11	31990	
38	0	34420	32500	38205	11	32300	
39	0	34425	32516	38244	11	32744	
40	0	34436	32513	38244	11	33053	
41	0	34420	32519	38281	12	33370	
42	0	34424	32518	38292	12	33312	
43	0	34421	32532	38320	10	32920	
44	0	34428	32522	38292	11	33714	
45	0	34424	32532	38324	12	33055	
46	0	34432	32524	38368	11	32420	
47	0	34440	32519	38362	11	32192	
48	0	34422	32526	38350	12	32314	
49	0	34418	32526	38347	11	32528	
50	0	34412	32514	38344	12	32416	
51	0	34420	32526	38372	11	32181	
52	0	34408	32530	38378	11	32660	
53	0	34420	32520	38356	11	32456	
54	0	34400	32528	38320	11	32190	
55	0	34394	32514	38288	12	32762	
56	0	34416	32502	38272	11	32112	
57	0	34400	32500	38269	12	32006	
58	0	34408	32509	38236	10	32335	
59	0	34404	32504	38236	11	32737	
60	0	34400	32500	38232	11	32870	
61	0	34396	32500	38208	11	33380	
62	0	34391	32512	38216	12	33337	
63	0	34394	32524	38212	13	33292	
64	0	34394	32516	38212	11	33632	
65	0	34400	32516	38209	12	33236	
66	0	34392	32518	38187	11	32245	
67	0	34401	32511	38186	11	32198	
68	0	34396	32505	38180	11	32350	
69	0	34408	32500	38189	12	32234	
70	0	34402	32516	38204	11	32444	
71	0	34400	32528	38196	12	32643	
72	0	34392	32526	38220	11	32698	
73	0	34384	32526	38236	11	32523	
74	0	34392	32527	38253	13	32688	
75	0	34384	32528	38268	11	32560	
76	0	34392	32524	38286	12	32156	
77	0	34394	32540	38312	10	32026	
78	0	34392	32540	38330	12	32263	
79	0	34405	32527	38332	12	32950	
80	0	34412	32538	38336	11	33263	
81	0	34418	32534	38372	11	33239	
82	0	34410	32536	38367	13	33516	
83	0	34420	32512	38346	10	33224	
84	0	34432	32521	38336	11	33232	
85	0	34420	32520	38348	11	33192	
86	0	34432	32496	38374	10	32357	
87	0	34432	32492	38373	12	31800	
88	0	34436	32492	38384	10	32393	
89	0	34440	32476	38382	12	32324	
90	0	34444	32474	38360	11	32380	
91	0	34440	32472	38356	12	32679	
92	0	34442	32477	38308	11	32496	
93	0	34432	32480	38310	12	32616	
94	0	34414	32501	38296	12	32637	
95	0	34416	32505	38280	11	32551	
96	0	34424	32502	38248	11	32319	
97	0	34416	32506	38244	11	32085	
98	0	34400	32506	38239	12	32204	
99	0	34405	32500	38242	10	32712	
100	0	34400	32482	38252	11	33328	
101	0	34404	32473	38242	11	33344	
102	0	34396	32480	38232	12	33325	
103	0	34396	32462	38228	11	33372	
104	0	34378	32468	38238	11	33542	
105	0	34380	32471	38216	12	33180	
106	0	34376	32460	38220	12	32297	
107	0	34364	32460	38224	11	32168	
108	0	34372	32461	38210	12	32256	
109	0	34374	32464	38193	11	32318	
110	0	34368	32460	38204	12	32500	
111	0	34374	32460	38200	11	32416	
112	0	34372	32442	38215	11	32236	
113	0	34372	32440	38220	11	32733	
114	0	34384	32426	38212	12	32696	
115	0	34380	32436	38202	10	32530	
116	0	34388	32430	38200	11	32053	
117	0	34400	32428	38192	10	31716	
118	0	34394	32426	38194	11	32460	
119	0	34410	32434	38212	11	32799	
120	0	34408	32422	38222	13	33332	
121	0	34412	32441	38230	11	33174	
122	0	34404	32436	38222	11	33572	
123	0	34418	32442	38236	10	33486	
124	0	34436	32420	38218	11	33570	
125	0	34444	32420	38216	11	33048	
126	0	34436	32412	38212	12	32454	
127	0	34438	32416	38210	10	32032	
128	0	34436	32424	38206	12	32276	
129	0	34426	32432	38208	11	32324	
130	0	34420	32440	38200	12	32480	
131	0	34402	32448	38203	12	32636	
132	0	34396	32456	38176	11	32478	
133	0	34400	32444	38188	11	32388	
134	0	34394	32458	38160	12	32761	
135	0	34393	32461	38157	11	32428	
136	0	34384	32468	38186	12	32212	
137	0	34380	32480	38200	11	31954	
138	0	34381	32484	38216	10	32316	
139	0	34364	32488	38228	12	32996	
140	0	34364	32500	38217	12	33227	
141	0	34352	32508	38236	11	33300	
142	0	34350	32504	38236	11	33448	
143	0	34373	32509	38232	11	33194	
144	0	34376	32516	38237	12	33640	
145	0	34384	32508	38222	12	33148	
146	0	34368	32516	38224	12	32456	
147	0	34380	32516	38246	10	32028	
148	0	34388	32500	38232	11	32237	
149	0	34388	32497	38256	12	32505	
150	0	34404	32486	38260	11	32368	
151	0	34392	32492	38268	12	32378	
152	0	34384	32495	38276	10	32769	
153	0	34384	32495	38262	12	32573	
154	0	34408	32484	38252	11	32616	
155	0	34396	32486	38268	11	32458	
156	0	34408	32478	38272	11	32161	
157	0	34416	32492	38276	12	32151	
158	0	34416	32496	38282	12	32222	
159	0	34432	32485	38272	12	33010	
160	0	34444	32484	38268	11	33445	
161	0	34452	32478	38254	11	33056	
162	0	34440	32465	38240	11	33127	
163	0	34444	32468	38265	10	33478	
164	0	34430	32456	38248	12	33538	
165	0	34444	32450	38260	11	32994	
166	0	34438	32448	38268	11	32184	
167	0	34442	32457	38266	13	32212	
168	0	34438	32462	38250	13	32426	
169	0	34448	32460	38252	10	32328	
170	0	34453	32458	38248	12	32516	
171	0	34432	32462	38265	11	32460	
172	0	34440	32454	38272	11	32710	
173	0	34456	32455	38248	13	32798	
174	0	34444	32462	38252	12	32584	
175	0	34458	32457	38248	12	32398	
176	0	34446	32476	38244	10	32084	
177	0	34454	32472	38244	11	31673	
178	0	34456	32480	38256	11	32417	
179	0	34448	32478	38256	11	32796	
180	0	34440	32472	38268	11	33348	
181	0	34446	32488	38289	11	33077	
182	0	34440	32478	38304	11	33468	
183	0	34416	32488	38294	11	33370	
184	0	34413	32484	38308	11	33671	
185	0	34404	32488	38321	12	32914	
186	0	34408	32496	38318	11	32382	
187	0	34404	32488	38326	11	32250	
188	0	34388	32488	38334	11	32180	
189	0	34388	32492	38317	12	31997	
190	0	34404	32488	38327	12	32609	
191	0	34404	32478	38304	12	32448	
192	0	34408	32473	38328	11	32164	
193	0	34401	32481	38336	13	32804	
194	0	34400	32492	38324	11	32537	
195	0	34400	32488	38308	11	32516	
196	0	34404	32488	38306	12	32204	
197	0	34404	32482	38304	13	32031	
198	0	34412	32474	38280	13	32327	
199	0	34416	32490	38266	10	32993	
200	0	34404	32492	38281	11	33208	
201	0	34408	32492	38283	12	33233	
202	0	34396	32503	38281	11	33366	
203	0	34404	32496	38274	11	33418	
204	0	34400	32501	38261	12	33612	
205	0	34396	32506	38236	11	32897	
206	0	34400	32520	38253	11	31888	
207	0	34400	32518	38244	10	32154	
208	0	34394	32517	38272	12	32285	
209	0	34394	32518	38284	11	32350	
210	0	34384	32516	38278	12	32200	
211	0	34388	32518	38270	11	32632	
212	0	34392	32528	38260	11	32568	
213	0	34392	32532	38260	11	32552	
214	0	34386	32532	38255	12	32263	
215	0	34389	32517	38248	12	32513	
216	0	34384	32513	38254	12	32188	
217	0	34372	32519	38240	10	31936	
218	0	34366	32516	38232	11	32316	
219	0	34356	32512	38229	10	32684	
220	0	34346	32506	38222	11	33464	
221	0	34344	32501	38204	10	33067	
222	0	34338	32500	38192	11	33064	
223	0	34340	32490	38192	11	33442	
224	0	34346	32488	38180	11	33467	
225	0	34340	32483	38192	11	32908	
226	0	34360	32480	38193	12	32442	
227	0	34376	32458	38192	11	32089	
228	0	34394	32452	38188	11	32095	
229	0	34388	32456	38202	13	32444	
230	0	34388	32457	38180	11	32430	
231	0	34388	32468	38168	12	32605	
232	0	34388	32481	38180	11	32748	
233	0	34372	32492	38178	11	32658	
234	0	34380	32476	38165	12	32683	
235	0	34384	32488	38180	10	32494	
236	0	34384	32509	38176	11	31950	
237	0	34392	32492	38188	11	32174	
238	0	34408	32484	38208	11	32506	
239	0	34400	32492	38228	11	33053	
240	0	34394	32504	38229	12	33124	
241	0	34384	32508	38232	12	33260	
242	0	34381	32517	38242	12	33720	
243	0	34384	32525	38254	12	33192	
244	0	34372	32514	38280	11	33600	
245	0	34366	32514	38252	11	32921	
246	0	34376	32514	38265	11	32389	
247	0	34384	32508	38258	11	32010	
248	0	34377	32510	38260	11	31870	
249	0	34396	32516	38246	11	32500	
250	0	34408	32512	38248	11	32391	
251	0	34408	32513	38268	11	32276	
252	0	34412	32514	38273	11	32726	
253	0	34414	32508	38297	11	32581	
254	0	34408	32514	38292	11	32684	
255	0	34400	32510	38301	11	32576	
256	0	34400	32508	38301	11	32015	
257	0	34412	32512	38292	11	32000	
258	0	34412	32504	38312	12	32532	
259	0	34408	32501	38292	12	32942	
260	0	34412	32501	38260	11	33313	
261	0	34402	32501	38274	11	33286	
262	0	34401	32500	38264	11	33460	
263	0	34408	32484	38256	10	33266	
264	0	34416	32470	38228	10	33706	
265	0	34402	32464	38228	12	32866	
266	0	34412	32468	38208	10	32260	
267	0	34396	32472	38212	11	32272	
268	0	34404	32462	38213	11	32192	
269	0	34406	32448	38212	11	32485	
270	0	34388	32441	38198	11	32654	
271	0	34373	32448	38202	11	32482	
272	0	34364	32448	38214	12	32632	
273	0	34378	32456	38223	11	32680	
274	0	34376	32433	38220	13	32708	
275	0	34376	32436	38220	11	32364	
276	0	34388	32456	38209	10	32089	
277	0	34380	32460	38215	11	31988	
278	0	34380	32464	38205	11	32396	
279	0	34376	32477	38184	12	32969	
280	0	34381	32473	38188	11	33260	
281	0	34392	32471	38208	13	33210	
282	0	34398	32466	38204	11	33596	
283	0	34392	32476	38215	12	33370	
284	0	34398	32476	38230	11	33509	
285	0	34405	32463	38229	11	32920	
286	0	34412	32476	38238	12	32358	
287	0	34440	32460	38252	12	32128	
288	0	34448	32470	38260	10	32327	
289	0	34452	32468	38256	12	32540	
290	0	34448	32472	38260	11	32388	
291	0	34452	32474	38252	12	32623	
292	0	34436	32480	38272	11	32568	
293	0	34440	32486	38272	11	32754	
294	0	34424	32476	38272	11	32844	
295	0	34416	32495	38260	11	32276	
296	0	34408	32480	38270	11	32004	
297	0	34394	32486	38296	12	31934	
298	0	34392	32492	38294	12	32463	
299	0	34388	32508	38273	10	32988	
300	0	34384	32503	38278	11	33429	
301	0	34392	32494	38268	12	33094	
302	0	34392	32492	38254	11	33233	
303	0	34396	32486	38240	10	33468	
304	0	34394	32482	38236	12	33436	
305	0	34408	32474	38240	12	32830	
306	0	34404	32491	38240	11	32184	
307	0	34416	32496	38252	10	32258	
308	0	34416	32490	38262	11	32198	
309	0	34404	32489	38273	12	32444	
310	0	34416	32492	38264	12	32597	
311	0	34416	32504	38282	11	32430	
312	0	34433	32504	38272	12	32646	
313	0	34420	32496	38265	13	32772	
314	0	34417	32502	38276	12	32698	
315	0	34424	32513	38277	12	32436	
316	0	34416	32512	38260	13	32094	
317	0	34410	32508	38254	11	31997	
318	0	34412	32506	38266	12	32442	
319	0	34416	32496	38282	13	33084	
320	0	34410	32494	38275	12	33205	
321	0	34412	32500	38268	11	33130	
322	0	34408	32496	38279	11	33616	
323	0	34408	32476	38284	11	33287	
324	0	34394	32496	38270	12	33532	
325	0	34385	32492	38264	13	32889	
326	0	34396	32480	38260	12	32348	
327	0	34402	32480	38248	11	32075	
328	0	34428	32482	38252	11	31964	
329	0	34432	32476	38256	12	32558	
330	0	34440	32463	38252	11	32460	
331	0	34464	32465	38220	10	32577	
332	0	34464	32458	38256	11	32712	
333	0	34472	32456	38272	10	32612	
334	0	34460	32454	38270	11	32656	
335	0	34474	32444	38273	13	32453	
336	0	34472	32456	38292	11	31996	
337	0	34456	32472	38280	12	32064	
338	0	34472	32465	38271	12	32572	
339	0	34484	32469	38276	11	33004	
340	0	34472	32470	38290	11	33240	
341	0	34468	32469	38296	11	33222	
342	0	34464	32466	38290	11	33720	
343	0	34456	32462	38287	10	33388	
344	0	34436	32480	38280	10	33524	
345	0	34420	32472	38257	10	32676	
346	0	34420	32468	38248	12	32236	
347	0	34401	32472	38223	11	32130	
348	0	34412	32464	38256	11	32340	
349	0	34424	32476	38240	12	32300	
350	0	34412	32477	38258	13	32261	
351	0	34416	32487	38274	12	32750	
352	0	34406	32497	38282	11	32526	
353	0	34392	32508	38279	12	32203	
354	0	34398	32516	38272	11	32848	
355	0	34404	32502	38264	11	32168	
356	0	34408	32501	38268	12	32170	
357	0	34428	32502	38272	11	32093	
358	0	34422	32496	38268	11	32462	
359	0	34426	32498	38285	11	33143	
360	0	34416	32498	38265	10	33271	
361	0	34440	32489	38286	10	33125	
362	0	34448	32495	38269	12	33736	
363	0	34440	32481	38256	11	33325	
364	0	34448	32484	38250	11	33531	
365	0	34432	32479	38263	12	32845	
366	0	34436	32480	38282	12	32096	
367	0	34440	32485	38289	12	32181	
368	0	34436	32486	38280	12	32273	
369	0	34440	32488	38289	12	32484	
370	0	34449	32492	38298	11	32408	
371	0	34440	32492	38294	11	32246	
372	0	34446	32485	38279	12	32772	
373	0	34460	32488	38286	11	32582	
374	0	34456	32482	38289	11	32677	
375	0	34448	32464	38280	12	32389	
376	0	34440	32466	38289	12	31956	
377	0	34437	32494	38292	12	32114	
378	0	34416	32497	38288	12	32681	
379	0	34432	32492	38297	12	32914	
380	0	34417	32490	38284	12	33137	
381	0	34412	32496	38250	11	33335	
382	0	34400	32488	38252	10	33516	
383	0	34404	32484	38238	12	32938	
384	0	34393	32485	38218	12	33579	
385	0	34379	32488	38210	12	32680	
386	0	34380	32476	38210	11	31828	
387	0	34380	32460	38204	13	32361	
388	0	34364	32470	38221	12	32244	
389	0	34359	32462	38200	13	32364	
390	0	34377	32464	38196	11	32424	
391	0	34384	32448	38169	12	32526	
392	0	34384	32445	38182	12	32696	
393	0	34392	32448	38168	10	32618	
394	0	34395	32434	38180	12	32846	
395	0	34404	32456	38164	11	32496	
396	0	34393	32458	38158	11	31980	
397	0	34400	32464	38142	11	31623	
398	0	34404	32465	38144	11	32714	
399	0	34412	32461	38172	12	33014	
400	0	34416	32453	38196	12	33338	
401	0	34416	32448	38192	10	33211	
402	0	34428	32432	38201	11	33629	
403	0	34428	32440	38212	11	33372	
404	0	34436	32453	38220	12	33308	
405	0	34436	32464	38230	11	32310	
406	0	34440	32462	38257	11	32349	
407	0	34439	32472	38272	11	32044	
408	0	34444	32476	38282	12	32320	
409	0	34450	32480	38316	11	32622	
410	0	34424	32489	38293	12	32436	
411	0	34444	32492	38306	11	32561	
412	0	34436	32489	38312	11	32698	
413	0	34426	32496	38313	11	32646	
414	0	34412	32498	38292	12	32704	
415	0	34388	32486	38288	11	32282	
416	0	34392	32494	38292	11	32084	
417	0	34372	32497	38270	13	32080	
418	0	34380	32484	38248	11	32356	
419	0	34380	32496	38257	10	33070	
420	0	34343	32504	38261	12	33373	
421	0	34352	32509	38252	11	33364	
422	0	34361	32510	38248	11	33465	
423	0	34364	32506	38244	12	33446	
424	0	34366	32516	38220	11	33463	
425	0	34376	32526	38212	11	32612	
426	0	34380	32530	38196	11	32183	
427	0	34376	32542	38229	12	32159	
428	0	34384	32536	38216	11	32452	
429	0	34396	32552	38212	11	32418	
430	0	34392	32550	38192	11	32496	
431	0	34404	32532	38214	12	32648	
432	0	34416	32538	38228	12	32582	
433	0	34408	32554	38238	11	32629	
434	0	34404	32548	38250	11	32792	
435	0	34400	32544	38252	11	32327	
436	0	34392	32541	38278	13	32111	
437	0	34396	32545	38279	11	32126	
438	0	34392	32546	38309	11	32446	
439	0	34391	32537	38320	12	33122	
440	0	34404	32536	38320	12	33456	
441	0	34396	32530	38314	11	33135	
442	0	34398	32519	38306	11	33228	
443	0	34388	32524	38324	12	33521	
444	0	34400	32516	38295	12	33332	
445	0	34384	32519	38316	10	32893	
446	0	34390	32512	38304	12	32208	
447	0	34388	32512	38308	12	32072	
448	0	34389	32520	38296	11	32334	
449	0	34400	32528	38316	11	32424	
450	0	34392	32528	38314	11	32548	
451	0	34405	32519	38329	12	32468	
452	0	34402	32508	38319	11	32288	
453	0	34412	32515	38324	11	32772	
454	0	34424	32511	38300	12	32561	
455	0	34426	32512	38277	11	32346	
456	0	34420	32525	38234	12	31978	
457	0	34420	32524	38221	10	32201	
458	0	34425	32526	38208	10	32422	
459	0	34408	32522	38236	11	33172	
460	0	34424	32525	38228	11	33476	
461	0	34404	32546	38218	11	33080	
462	0	34400	32533	38195	12	33698	
463	0	34400	32537	38197	12	33404	
464	0	34388	32530	38200	12	33557	
465	0	34382	32527	38206	13	32590	
466	0	34368	32528	38220	13	32104	
467	0	34368	32548	38236	11	31781	
468	0	34368	32540	38241	12	32420	
469	0	34376	32514	38240	11	32277	
470	0	34380	32516	38248	11	32109	
471	0	34378	32526	38278	11	32646	
472	0	34372	32523	38284	11	32540	
473	0	34386	32524	38286	10	32252	
474	0	34400	32529	38273	11	32773	
475	0	34400	32528	38279	11	32256	
476	0	34420	32520	38278	10	31956	
477	0	34418	32526	38300	11	31660	
478	0	34432	32520	38324	11	32706	
479	0	34432	32507	38319	11	33073	
480	0	34437	32494	38327	12	33276	
481	0	34432	32494	38320	11	33268	
482	0	34428	32504	38324	11	33602	
483	0	34432	32492	38324	11	33431	
484	0	34414	32496	38305	11	33565	
485	0	34401	32498	38296	11	32588	
486	0	34402	32491	38273	11	32204	
487	0	34404	32488	38292	12	32284	
488	0	34416	32484	38304	11	32072	
489	0	34408	32484	38288	13	32548	
490	0	34409	32474	38274	12	32636	
491	0	34416	32480	38268	11	32486	
492	0	34414	32484	38260	11	32671	
493	0	34412	32480	38256	11	32784	
494	0	34419	32465	38224	11	32469	
495	0	34420	32457	38208	12	32348	
496	0	34420	32471	38198	11	32036	
497	0	34416	32480	38184	11	32077	
498	0	34426	32464	38156	11	32580	
499	0	34428	32452	38166	11	33280	
500	0	34434	32444	38158	12	33420	
501	0	34440	32427	38137	13	33020	
502	0	34440	32420	38131	12	33748	
503	0	34452	32400	38120	12	33529	
504	0	34446	32398	38136	11	33370	
505	0	34452	32391	38132	12	32798	
506	0	34464	32401	38136	11	32224	
507	0	34476	32380	38144	11	32095	
508	0	34461	32386	38178	12	32076	
509	0	34464	32397	38188	11	32588	
510	0	34462	32384	38186	12	32472	
511	0	34472	32392	38170	11	32612	
512	0	34468	32398	38194	13	32480	
513	0	34452	32396	38196	12	32708	
514	0	34450	32405	38216	12	32762	
515	0	34445	32426	38242	12	32250	
516	0	34444	32430	38236	12	32116	
517	0	34444	32436	38264	10	32120	
518	0	34428	32448	38272	10	32468	
519	0	34422	32446	38238	11	32735	
520	0	34434	32463	38230	12	33400	
521	0	34412	32462	38238	11	33154	
522	0	34410	32461	38244	12	33676	
523	0	34396	32452	38224	10	33528	
524	0	34388	32456	38224	12	33262	
525	0	34386	32448	38200	12	32762	
526	0	34398	32461	38210	10	32248	
527	0	34368	32470	38206	13	32116	
528	0	34372	32476	38212	12	32372	
529	0	34364	32479	38225	12	32556	
530	0	34358	32492	38230	12	32326	
531	0	34356	32504	38210	12	32650	
532	0	34372	32513	38210	11	32659	
533	0	34380	32499	38208	10	32698	
534	0	34400	32508	38213	12	32668	
535	0	34392	32512	38238	10	32324	
536	0	34406	32506	38256	11	32114	
537	0	34420	32515	38256	12	31956	
538	0	34437	32522	38244	12	32216	
539	0	34432	32524	38253	10	33272	
540	0	34432	32527	38280	11	33166	
541	0	34422	32519	38292	11	33280	
542	0	34424	32514	38284	13	33710	
543	0	34424	32506	38303	10	33250	
544	0	34402	32504	38306	12	33521	
545	0	34396	32493	38318	12	32802	
546	0	34412	32496	38318	12	32044	
547	0	34412	32489	38328	12	31684	
548	0	34412	32495	38308	11	32430	
549	0	34400	32496	38331	11	32335	
550	0	34404	32504	38341	11	32186	
551	0	34416	32503	38354	12	32641	
552	0	34420	32501	38338	11	32417	
553	0	34416	32496	38324	12	32209	
554	0	34410	32506	38322	10	32844	
555	0	34432	32513	38312	11	32188	
556	0	34442	32480	38294	12	32134	
557	0	34450	32480	38291	11	32088	
558	0	34432	32498	38281	10	32766	
559	0	34440	32497	38280	10	33018	
560	0	34432	32486	38256	11	33287	
561	0	34430	32473	38248	11	33250	
562	0	34436	32474	38242	11	33506	
563	0	34432	32460	38240	11	33420	
564	0	34426	32460	38239	11	33534	
565	0	34410	32474	38242	12	32596	
566	0	34412	32457	38244	11	32162	
567	0	34400	32456	38232	12	32301	
568	0	34402	32444	38232	10	32209	
569	0	34384	32442	38220	11	32386	
570	0	34384	32439	38208	11	32110	
571	0	34392	32434	38200	11	32669	
572	0	34380	32446	38196	11	32458	
573	0	34388	32454	38205	11	32252	
574	0	34384	32464	38244	11	32808	
575	0	34402	32464	38216	11	32277	
576	0	34400	32486	38230	10	31987	
577	0	34401	32484	38226	12	31972	
578	0	34412	32490	38227	12	32666	
579	0	34412	32492	38229	11	33314	
580	0	34412	32481	38236	12	33218	
581	0	34397	32495	38277	11	33248	
582	0	34414	32474	38262	11	33534	
583	0	34416	32481	38272	11	33442	
584	0	34404	32496	38292	11	33448	
585	0	34388	32490	38300	12	32578	
586	0	34396	32486	38304	11	32023	
587	0	34404	32484	38313	12	32042	
588	0	34381	32488	38336	11	32436	
589	0	34380	32506	38340	11	32406	
590	0	34380	32516	38356	12	32558	
591	0	34372	32497	38373	12	32408	
592	0	34360	32519	38358	10	32280	
593	0	34356	32518	38340	11	32758	
594	0	34354	32501	38316	10	32567	
595	0	34318	32528	38296	11	32309	
596	0	34322	32536	38282	12	32158	
597	0	34325	32552	38265	12	32014	
598	0	34324	32557	38274	11	32682	
599	0	34330	32529	38260	13	33328	
600	0	34330	32532	38225	11	33304	
601	0	34340	32488	38209	12	33337	
602	0	34336	32480	38200	10	33464	
603	0	34356	32453	38212	11	32950	
604	0	34384	32438	38260	10	33463	
605	0	34398	32420	38304	12	32688	
606	0	34404	32433	38292	12	32188	
607	0	34421	32452	38300	11	32176	
608	0	34460	32462	38292	12	32352	
609	0	34474	32486	38311	13	32573	
610	0	34476	32500	38326	11	32423	
611	0	34462	32501	38316	12	32429	
612	0	34458	32500	38336	12	32767	
613	0	34441	32490	38340	10	32583	
614	0	34424	32468	38351	11	32618	
615	0	34414	32496	38349	12	32316	
616	0	34408	32506	38366	11	32055	
617	0	34408	32539	38364	11	32221	
618	0	34412	32554	38357	12	32610	
619	0	34380	32602	38325	12	33278	
620	0	34352	32620	38292	11	33146	
621	0	34328	32616	38255	11	32704	
622	0	34293	32638	38232	11	33691	
623	0	34260	32628	38196	12	33400	
624	0	34232	32616	38157	12	33187	
625	0	34200	32614	38124	11	32849	
626	0	34192	32586	38084	11	32064	
627	0	34184	32572	38084	12	32311	
628	0	34181	32553	38082	11	32140	
629	0	34204	32524	38052	12	32050	
630	0	34236	32495	38048	10	32622	
631	0	34260	32464	38052	12	32521	
632	0	34300	32445	38081	12	32676	
633	0	34336	32424	38124	11	32574	
634	0	34376	32404	38154	11	32420	
635	0	34416	32400	38192	11	32246	
636	0	34436	32409	38216	11	32112	
637	0	34456	32417	38260	12	32184	
638	0	34464	32422	38271	12	32568	
639	0	34481	32430	38279	10	32725	
640	0	34472	32436	38314	11	33366	
641	0	34464	32444	38344	12	33220	
642	0	34444	32445	38376	12	33620	
643	0	34421	32455	38360	11	33321	
644	0	34416	32460	38373	12	33041	
645	0	34388	32458	38360	11	32772	
646	0	34368	32448	38356	12	31984	
647	0	34357	32448	38320	11	31997	
648	0	34336	32425	38322	10	32404	
649	0	34315	32426	38308	12	32450	
650	0	34304	32442	38276	11	32568	
651	0	34311	32426	38260	11	32714	
652	0	34312	32428	38232	11	32533	
653	0	34316	32426	38219	11	32708	
654	0	34332	32425	38232	11	32707	
655	0	34336	32438	38224	11	32357	
656	0	34348	32446	38198	12	32054	
657	0	34358	32456	38210	12	32072	
658	0	34376	32466	38192	12	32738	
659	0	34374	32482	38172	10	33302	
660	0	34388	32460	38156	11	33096	
661	0	34384	32455	38166	13	33246	
662	0	34400	32471	38166	11	33604	
663	0	34392	32473	38154	11	33370	
664	0	34386	32484	38164	11	33429	
665	0	34372	32484	38183	11	32748	
666	0	34360	32498	38204	11	32038	
667	0	34350	32513	38236	11	31898	
668	0	34334	32516	38240	11	32481	
669	0	34326	32516	38261	11	32401	
670	0	34322	32520	38260	11	32569	
671	0	34320	32512	38266	11	32545	
672	0	34314	32525	38292	10	32651	
673	0	34312	32512	38297	11	32660	
674	0	34301	32518	38276	11	32596	
675	0	34330	32516	38292	11	32330	
676	0	34328	32516	38286	12	32162	
677	0	34340	32526	38318	11	32140	
678	0	34344	32528	38340	11	32769	
679	0	34337	32526	38344	12	33180	
680	0	34340	32522	38376	11	33250	
681	0	34340	32528	38355	11	33357	
682	0	34356	32524	38360	11	33489	
683	0	34362	32518	38344	11	33564	
684	0	34376	32508	38324	11	33268	
685	0	34368	32508	38310	12	32542	
686	0	34362	32511	38298	11	32116	
687	0	34364	32524	38292	10	32132	
688	0	34342	32512	38308	11	31898	
689	0	34344	32524	38304	11	32580	
690	0	34340	32508	38277	11	32452	
691	0	34337	32516	38268	12	32408	
692	0	34328	32508	38244	13	32718	
693	0	34315	32516	38247	12	32478	
694	0	34320	32524	38264	11	32450	
695	0	34316	32507	38241	11	32522	
696	0	34320	32494	38246	12	32018	
697	0	34328	32481	38266	12	32020	
698	0	34320	32480	38273	11	32560	
699	0	34324	32482	38261	11	32901	
700	0	34332	32480	38279	12	33360	
701	0	34348	32483	38284	11	33224	
702	0	34348	32474	38272	11	33604	
703	0	34350	32470	38312	11	33386	
704	0	34352	32472	38336	12	33436	
705	0	34364	32472	38326	11	32713	
706	0	34376	32471	38336	11	32036	
707	0	34376	32476	38334	12	32254	
708	0	34356	32500	38304	10	32420	
709	0	34344	32488	38284	11	32392	
710	0	34340	32480	38288	13	32444	
711	0	34336	32486	38281	11	32562	
712	0	34336	32487	38295	12	32673	
713	0	34332	32476	38268	11	32596	
714	0	34328	32488	38286	11	32582	
715	0	34324	32476	38272	11	32478	
716	0	34332	32468	38262	12	32024	
717	0	34342	32457	38268	11	31996	
718	0	34342	32465	38296	10	32818	
719	0	34340	32464	38275	12	33204	
720	0	34348	32473	38290	12	33287	
721	0	34352	32471	38268	11	32998	
722	0	34348	32460	38281	11	33545	
723	0	34348	32452	38307	11	33577	
724	0	34350	32444	38296	10	33418	
725	0	34368	32428	38288	11	32504	
726	0	34349	32428	38289	11	32230	
727	0	34352	32440	38304	11	32341	
728	0	34350	32440	38308	12	32256	
729	0	34350	32438	38292	12	32036	
730	0	34328	32434	38273	11	32607	
731	0	34336	32424	38294	12	32498	
732	0	34324	32444	38292	10	32464	
733	0	34308	32456	38300	11	32792	
734	0	34288	32448	38279	11	32486	
735	0	34288	32442	38276	10	32296	
736	0	34292	32444	38255	12	32228	
737	0	34282	32446	38234	11	32070	
738	0	34276	32452	38212	10	32844	
739	0	34270	32458	38216	11	33148	
740	0	34268	32462	38208	10	33404	
741	0	34282	32462	38193	12	33377	
742	0	34292	32462	38209	10	33389	
743	0	34300	32471	38184	10	33581	
744	0	34322	32458	38172	11	33420	
745	0	34330	32460	38178	11	32442	
746	0	34330	32476	38176	12	32172	
747	0	34336	32466	38172	12	32316	
748	0	34356	32464	38202	10	32198	
749	0	34360	32464	38238	11	32476	
750	0	34352	32473	38273	12	32648	
751	0	34349	32469	38284	11	32448	
752	0	34352	32480	38303	11	32086	
753	0	34356	32477	38308	12	32798	
754	0	34364	32476	38308	11	32689	
755	0	34360	32472	38346	12	32268	
756	0	34340	32473	38340	12	32197	
757	0	34346	32463	38352	12	32062	
758	0	34332	32470	38372	11	32712	
759	0	34327	32468	38352	10	33361	
760	0	34317	32463	38339	12	33300	
761	0	34322	32453	38336	13	33326	
762	0	34320	32458	38330	11	33389	
763	0	34304	32456	38326	11	33527	
764	0	34304	32462	38317	11	33328	
765	0	34300	32468	38297	11	32656	
766	0	34302	32472	38274	10	32087	
767	0	34320	32465	38274	11	32061	
768	0	34308	32468	38254	11	32439	
769	0	34300	32462	38252	12	32436	
770	0	34316	32460	38240	11	32584	
771	0	34311	32464	38252	13	32470	
772	0	34322	32468	38230	11	32693	
773	0	34313	32472	38218	12	32666	
774	0	34304	32479	38223	13	32539	
775	0	34304	32494	38228	12	31877	
776	0	34311	32486	38228	11	32250	
777	0	34298	32489	38238	12	32014	
778	0	34304	32492	38256	11	32473	
779	0	34308	32488	38248	11	33399	
780	0	34308	32476	38264	12	33216	
781	0	34300	32486	38251	12	33369	
782	0	34300	32490	38270	11	33356	
783	0	34293	32481	38300	11	33680	
784	0	34292	32468	38290	10	33376	
785	0	34288	32476	38310	10	32394	
786	0	34280	32470	38310	12	31980	
787	0	34268	32492	38318	11	32320	
788	0	34274	32484	38326	12	32282	
789	0	34256	32476	38330	11	32152	
790	0	34248	32480	38342	12	32692	
791	0	34244	32495	38344	11	32480	
792	0	34244	32480	38312	13	32694	
793	0	34244	32481	38300	12	32840	
794	0	34264	32474	38293	9	32518	
795	0	34270	32466	38272	12	32278	
796	0	34297	32469	38284	11	32096	
797	0	34294	32476	38284	10	32089	
798	0	34304	32456	38304	12	32832	
799	0	34308	32458	38305	11	33208	
800	0	34300	32470	38295	11	33271	
801	0	34312	32469	38302	11	33204	
802	0	34300	32490	38282	11	33640	
803	0	34284	32489	38280	11	33441	
804	0	34284	32490	38242	11	33332	
805	0	34284	32500	38252	10	32684	
806	0	34273	32501	38264	12	32115	
807	0	34268	32503	38279	11	32210	
808	0	34268	32500	38294	11	32290	
809	0	34268	32495	38274	12	32615	
810	0	34260	32500	38271	11	32430	
811	0	34278	32516	38288	12	32150	
812	0	34280	32524	38293	10	32808	
813	0	34284	32534	38284	11	32504	
814	0	34282	32534	38308	12	32671	
815	0	34288	32532	38304	11	32324	
816	0	34293	32524	38322	12	31892	
817	0	34288	32544	38328	11	31818	
818	0	34292	32542	38336	11	32980	
819	0	34290	32535	38328	11	33212	
820	0	34292	32538	38308	13	33313	
821	0	34280	32536	38313	12	33360	
822	0	34296	32528	38306	11	33257	
823	0	34288	32503	38338	12	33636	
824	0	34284	32500	38340	11	33338	
825	0	34289	32486	38341	10	32420	
826	0	34276	32490	38342	13	31713	
827	0	34272	32466	38348	12	32380	
828	0	34264	32477	38328	11	32248	
829	0	34262	32466	38317	12	32404	
830	0	34246	32466	38295	12	32672	
831	0	34262	32450	38272	11	32504	
832	0	34252	32460	38264	11	32636	
833	0	34274	32464	38271	11	32412	
834	0	34266	32476	38284	12	32734	
835	0	34260	32472	38277	12	32313	
836	0	34268	32478	38257	11	32012	
837	0	34288	32472	38279	11	31774	
838	0	34288	32486	38262	11	32951	
839	0	34276	32500	38236	11	33316	
840	0	34292	32488	38228	11	33368	
841	0	34304	32502	38230	11	33185	
842	0	34292	32508	38231	11	33489	
843	0	34276	32504	38253	11	33686	
844	0	34268	32520	38264	10	32992	
845	0	34256	32501	38274	12	32104	
846	0	34250	32497	38309	12	32312	
847	0	34252	32500	38300	10	32135	
848	0	34248	32488	38317	11	32452	
849	0	34244	32489	38314	11	32490	
850	0	34244	32480	38304	10	32621	
851	0	34245	32471	38324	13	32468	
852	0	34240	32462	38325	12	32655	
853	0	34240	32466	38308	12	32710	
854	0	34240	32461	38290	12	32497	
855	0	34224	32464	38284	11	32197	
856	0	34232	32456	38288	11	32028	
857	0	34220	32456	38280	12	32385	
858	0	34232	32444	38268	11	32700	
859	0	34236	32433	38243	11	33316	
860	0	34232	32439	38228	12	33344	
861	0	34236	32426	38214	11	33208	
862	0	34232	32440	38216	11	33466	
863	0	34236	32446	38216	11	33660	
864	0	34252	32446	38224	10	33244	
865	0	34252	32436	38220	11	32474	
866	0	34256	32436	38214	12	32182	
867	0	34264	32434	38232	11	32352	
868	0	34268	32444	38250	12	32276	
869	0	34272	32448	38260	11	32496	
870	0	34264	32456	38256	11	32623	
871	0	34264	32460	38305	12	32564	
872	0	34272	32459	38331	11	32574	
873	0	34284	32460	38334	11	32518	
874	0	34276	32469	38343	11	32732	
875	0	34284	32477	38356	11	32120	
876	0	34272	32488	38376	11	31748	
877	0	34256	32517	38374	12	32359	
878	0	34250	32508	38364	11	32760	
879	0	34246	32504	38348	11	33350	
880	0	34228	32504	38357	10	33351	
881	0	34240	32500	38344	12	33224	
882	0	34222	32485	38333	10	33000	
883	0	34202	32484	38356	10	33702	
884	0	34209	32478	38355	11	33042	
885	0	34196	32475	38330	11	32380	
886	0	34204	32471	38325	11	32180	
887	0	34202	32468	38314	11	32256	
888	0	34204	32468	38306	13	32508	
889	0	34212	32444	38292	11	32322	
890	0	34225	32437	38276	11	32162	
891	0	34216	32448	38272	11	32684	
892	0	34224	32449	38280	11	32664	
893	0	34236	32452	38272	11	32808	
894	0	34240	32448	38263	11	32567	
895	0	34240	32442	38279	11	32292	
896	0	34240	32455	38293	11	31854	
897	0	34248	32462	38276	11	31788	
898	0	34232	32475	38260	11	32936	
899	0	34224	32468	38256	11	33312	
900	0	34220	32471	38276	12	33304	
901	0	34198	32464	38288	12	33220	
902	0	34172	32477	38292	12	33038	
903	0	34168	32476	38309	10	33784	
904	0	34156	32484	38298	11	33045	
905	0	34144	32486	38282	11	32514	
906	0	34149	32482	38292	11	32078	
907	0	34144	32484	38282	11	32193	
908	0	34135	32500	38284	12	32545	
909	0	34144	32492	38264	11	32401	
910	0	34154	32498	38282	13	32591	
911	0	34148	32506	38290	12	32496	
912	0	34158	32512	38293	12	32708	
913	0	34160	32511	38317	11	32714	
914	0	34178	32513	38322	11	32468	
915	0	34190	32524	38329	11	31826	
916	0	34212	32520	38341	11	32212	
917	0	34228	32517	38337	11	32087	
918	0	34240	32514	38345	11	32424	
919	0	34236	32507	38364	13	33436	
920	0	34240	32500	38366	11	33199	
921	0	34236	32484	38407	11	33470	
922	0	34232	32470	38407	12	33364	
923	0	34228	32480	38398	12	33677	
924	0	34214	32492	38400	12	33220	
925	0	34204	32495	38423	12	32477	
926	0	34189	32500	38400	11	32131	
927	0	34182	32486	38375	12	32164	
928	0	34165	32488	38380	10	32436	
929	0	34144	32488	38368	12	32597	
930	0	34136	32484	38352	11	32456	
931	0	34138	32488	38354	11	32656	
932	0	34140	32494	38345	11	32647	
933	0	34140	32491	38336	12	32591	
934	0	34126	32510	38328	12	32586	
935	0	34138	32509	38339	12	32062	
936	0	34144	32517	38318	11	32208	
937	0	34156	32508	38302	13	32334	
938	0	34168	32510	38312	11	32786	
939	0	34184	32510	38287	11	33344	
940	0	34200	32488	38292	11	33252	
941	0	34208	32487	38316	11	33532	
942	0	34218	32464	38322	12	33464	
943	0	34220	32468	38321	11	33616	
944	0	34208	32461	38308	13	33236	
945	0	34198	32484	38324	11	32273	
946	0	34184	32479	38324	12	31696	
947	0	34192	32476	38338	12	32225	
948	0	34184	32456	38340	11	32377	
949	0	34192	32452	38334	11	32603	
950	0	34185	32452	38329	12	32561	
951	0	34184	32439	38332	11	32601	
952	0	34188	32426	38336	12	32719	
953	0	34188	32428	38376	12	32564	
954	0	34185	32438	38334	11	32116	
955	0	34184	32441	38341	11	32170	
956	0	34172	32450	38339	11	32042	
957	0	34186	32446	38344	11	32225	
958	0	34176	32465	38348	11	32924	
959	0	34180	32464	38340	11	33224	
960	0	34190	32453	38333	11	33153	
961	0	34192	32456	38340	12	33368	
962	0	34196	32476	38334	11	33495	
963	0	34196	32480	38336	11	33460	
964	0	34184	32496	38342	12	32720	
965	0	34188	32505	38362	11	32484	
966	0	34176	32516	38352	12	31988	
967	0	34173	32514	38348	11	32289	
968	0	34172	32516	38348	11	32529	
969	0	34161	32506	38347	12	32376	
970	0	34146	32504	38360	13	32568	
971	0	34148	32508	38380	12	32661	
972	0	34154	32506	38368	13	32468	
973	0	34156	32507	38363	12	32288	
974	0	34152	32508	38370	11	32705	
975	0	34146	32516	38366	10	32003	
976	0	34138	32510	38362	13	32048	
977	0	34154	32500	38360	11	32496	
978	0	34164	32480	38362	11	33030	
979	0	34176	32468	38362	11	33572	
980	0	34158	32480	38364	11	33148	
981	0	34170	32474	38375	11	32896	
982	0	34176	32485	38360	12	33500	
983	0	34184	32476	38382	10	33543	
984	0	34196	32470	38378	12	33062	
985	0	34200	32473	38381	11	32561	
986	0	34200	32461	38360	11	32108	
987	0	34208	32440	38366	12	32271	
988	0	34204	32439	38356	11	32214	
989	0	34206	32409	38366	10	32479	
990	0	34206	32402	38361	12	32616	
991	0	34204	32409	38364	11	32436	
992	0	34200	32396	38357	12	32572	
993	0	34188	32418	38357	10	32564	
994	0	34192	32406	38330	11	32700	
995	0	34188	32407	38302	12	32160	
996	0	34192	32407	38301	12	31974	
997	0	34189	32408	38293	10	32236	
998	0	34186	32414	38290	11	32873	
999	0	34176	32410	38303	11	33148	
1000	0	34186	32413	38303	11	33156	
1001	0	34184	32416	38293	12	33478	
1002	0	34160	32417	38279	12	33151	
1003	0	34160	32418	38277	12	33143	
1004	0	34149	32412	38244	11	33077	
1005	0	34168	32428	38252	11	32305	
1006	0	34160	32433	38244	12	32140	
1007	0	34156	32442	38235	12	32172	
1008	0	34144	32456	38248	12	32140	
1009	0	34148	32471	38246	11	32500	
1010	0	34152	32468	38264	12	32698	
1011	0	34168	32472	38289	12	32920	
1012	0	34188	32482	38300	12	32870	
1013	0	34177	32472	38316	11	33030	
1014	0	34174	32484	38328	11	32564	
1015	0	34180	32480	38372	12	32116	
1016	0	34176	32476	38380	12	32200	
1017	0	34188	32482	38400	12	32284	
1018	0	34178	32476	38372	11	33046	
1019	0	34177	32472	38386	11	33212	
1020	0	34176	32474	38381	13	33230	
1021	0	34174	32468	38392	11	33398	
1022	0	34168	32460	38407	11	33270	
1023	0	34168	32464	38392	11	33625	
1024	0	34173	32465	38398	11	33152	
1025	0	34180	32453	38398	12	32302	
1026	0	34180	32460	38404	11	32116	
1027	0	34170	32473	38420	11	32275	
1028	0	34176	32458	38412	13	32273	
1029	0	34176	32464	38405	11	32486	
1030	0	34180	32460	38381	11	32539	
1031	0	34188	32445	38354	11	32576	
1032	0	34184	32446	38327	12	32571	
1033	0	34180	32452	38304	12	32422	
1034	0	34184	32468	38295	11	32036	
1035	0	34180	32460	38308	13	32198	
1036	0	34186	32452	38314	12	31976	
1037	0	34188	32466	38321	11	32396	
1038	0	34165	32465	38331	10	32858	
1039	0	34168	32468	38322	12	33330	
1040	0	34158	32464	38332	12	33286	
1041	0	34157	32463	38322	12	33333	
1042	0	34160	32462	38322	11	32916	
1043	0	34156	32456	38345	12	33644	
1044	0	34160	32458	38340	12	33015	
1045	0	34146	32478	38329	12	32768	
1046	0	34156	32481	38344	12	32309	
1047	0	34146	32497	38356	12	32400	
1048	0	34144	32500	38360	11	32352	
1049	0	34148	32501	38374	12	32476	
1050	0	34148	32484	38374	11	32592	
1051	0	34152	32467	38364	12	32548	
1052	0	34158	32459	38364	11	32536	
1053	0	34161	32452	38377	11	32546	
1054	0	34160	32461	38372	11	32386	
1055	0	34160	32442	38352	12	31674	
1056	0	34172	32440	38342	12	31684	
1057	0	34180	32436	38348	11	32374	
1058	0	34196	32420	38346	11	32772	
1059	0	34196	32413	38342	11	33346	
1060	0	34198	32423	38356	11	33172	
1061	0	34208	32410	38347	12	33609	
1062	0	34220	32397	38352	12	33566	
1063	0	34212	32389	38345	11	33516	
1064	0	34221	32376	38351	11	32666	
1065	0	34208	32389	38368	12	32487	
1066	0	34192	32404	38394	11	32120	
1067	0	34200	32410	38389	13	32176	
1068	0	34192	32415	38360	12	32517	
1069	0	34188	32408	38357	10	32580	
1070	0	34164	32424	38332	11	32748	
1071	0	34150	32420	38308	11	32613	
1072	0	34144	32437	38305	12	32775	
1073	0	34132	32435	38287	12	32850	
1074	0	34140	32432	38277	11	32364	
1075	0	34145	32432	38270	12	31801	
1076	0	34149	32437	38275	11	32342	
1077	0	34156	32449	38261	10	32220	
1078	0	34170	32428	38257	10	32684	
1079	0	34180	32433	38249	11	33390	
1080	0	34181	32432	38244	12	33022	
1081	0	34176	32421	38264	10	32717	
1082	0	34190	32407	38245	12	33302	
1083	0	34201	32404	38240	10	33255	
1084	0	34196	32386	38226	11	32916	
1085	0	34200	32377	38253	11	32308	
1086	0	34192	32374	38266	11	32263	
1087	0	34192	32370	38268	12	32431	
1088	0	34177	32377	38280	11	32340	
1089	0	34178	32380	38300	10	32692	
1090	0	34173	32384	38308	10	32426	
1091	0	34156	32396	38316	12	32717	
1092	0	34152	32398	38290	12	32700	
1093	0	34156	32380	38290	11	32664	
1094	0	34156	32388	38297	10	32787	
1095	0	34144	32383	38284	12	32912	
1096	0	34142	32386	38276	11	32952	
1097	0	34148	32383	38260	11	32736	
1098	0	34148	32386	38272	11	32799	
1099	0	34158	32374	38276	12	32305	
1100	0	34168	32376	38280	12	32438	
1101	0	34168	32384	38276	11	32394	
1102	0	34178	32376	38255	12	32626	
1103	0	34176	32373	38255	11	32908	
1104	0	34176	32372	38256	11	32644	
1105	0	34168	32386	38268	12	32692	
1106	0	34151	32382	38272	13	32881	
1107	0	34130	32396	38248	11	32981	
1108	0	34117	32406	38246	12	32700	
1109	0	34085	32424	38224	10	32808	
1110	0	34080	32446	38228	11	32792	
1111	0	34062	32460	38247	11	32832	
1112	0	34059	32465	38229	12	32546	
1113	0	34052	32462	38225	11	32660	
1114	0	34046	32470	38212	11	32756	
1115	0	34048	32472	38218	12	32514	
1116	0	34056	32480	38228	11	32648	
1117	0	34065	32476	38230	11	32530	
1118	0	34066	32490	38225	12	32644	
1119	0	34084	32494	38239	12	32462	
1120	0	34092	32497	38278	11	32664	
1121	0	34097	32502	38292	11	32860	
1122	0	34106	32508	38296	12	32724	
1123	0	34113	32503	38316	11	32775	
1124	0	34116	32513	38352	11	32543	
1125	0	34132	32501	38360	12	32657	
1126	0	34129	32496	38370	11	32692	
1127	0	34134	32489	38381	12	32366	
1128	0	34128	32488	38399	10	32408	
1129	0	34125	32494	38414	12	32427	
1130	0	34120	32483	38416	12	32716	
1131	0	34113	32474	38407	11	32564	
1132	0	34112	32472	38394	12	32692	
1133	0	34112	32474	38370	10	32849	
1134	0	34118	32470	38393	12	32856	
1135	0	34112	32480	38384	10	32726	
1136	0	34113	32478	38380	10	32440	
1137	0	34112	32452	38368	11	33040	
1138	0	34120	32458	38352	11	33016	
1139	0	34124	32452	38352	11	33340	
1140	0	34124	32468	38353	11	33352	
1141	0	34132	32481	38360	10	33492	
1142	0	34148	32485	38351	13	32618	
1143	0	34154	32500	38343	12	32362	
1144	0	34152	32494	38366	11	32410	
1145	0	34156	32508	38370	12	32608	
1146	0	34154	32510	38364	12	32525	
1147	0	34160	32510	38360	11	32543	
1148	0	34152	32518	38346	11	32548	
1149	0	34144	32507	38341	11	32608	
1150	0	34128	32492	38332	11	32397	
1151	0	34124	32495	38324	11	32540	
1152	0	34105	32488	38322	12	32514	
1153	0	34090	32484	38334	12	32673	
1154	0	34080	32490	38336	11	32584	
1155	0	34068	32472	38336	10	32340	
1156	0	34052	32464	38316	13	32368	
1157	0	34052	32446	38301	12	32566	
1158	0	34062	32446	38314	11	32648	
1159	0	34060	32440	38316	11	32770	
1160	0	34080	32420	38320	13	32861	
1161	0	34104	32422	38337	11	32910	
1162	0	34124	32425	38344	11	33076	
1163	0	34140	32406	38352	12	33108	
1164	0	34152	32404	38344	12	32576	
1165	0	34164	32404	38345	10	32837	
1166	0	34172	32405	38357	11	32742	
1167	0	34172	32411	38352	11	32616	
1168	0	34160	32421	38348	12	32753	
1169	0	34140	32429	38356	11	32826	
1170	0	34132	32436	38346	10	32682	
1171	0	34120	32424	38364	12	32758	
1172	0	34122	32418	38344	12	32597	
1173	0	34120	32406	38328	12	32578	
1174	0	34108	32394	38326	11	32561	
1175	0	34100	32399	38310	11	32736	
1176	0	34088	32398	38303	11	32864	
1177	0	34092	32392	38288	11	32629	
1178	0	34106	32390	38285	10	32647	
1179	0	34112	32392	38248	10	32679	
1180	0	34132	32396	38252	11	32742	
1181	0	34148	32391	38244	11	32748	
1182	0	34166	32384	38242	12	32705	
1183	0	34176	32380	38242	11	32800	
1184	0	34184	32404	38232	11	32518	
1185	0	34200	32405	38250	11	32424	
1186	0	34204	32408	38284	11	32613	
1187	0	34188	32431	38295	12	32520	
1188	0	34174	32440	38302	10	32528	
1189	0	34168	32432	38320	11	32764	
1190	0	34168	32436	38312	11	32748	
1191	0	34152	32438	38318	12	32573	
1192	0	34128	32437	38338	12	32724	
1193	0	34126	32437	38348	10	32492	
1194	0	34112	32436	38368	10	32808	
1195	0	34104	32410	38376	11	32782	
1196	0	34108	32401	38361	12	32748	
1197	0	34097	32406	38377	10	32748	
1198	0	34092	32402	38392	10	32876	
1199	0	34092	32394	38381	12	33000	
1200	0	34080	32404	38356	12	32732	
1201	0	34088	32416	38354	12	32396	
1202	0	34108	32406	38362	13	32810	
1203	0	34120	32413	38370	12	32762	
1204	0	34128	32420	38367	11	32740	
1205	0	34124	32429	38356	11	32885	
1206	0	34140	32430	38352	12	32714	
1207	0	34148	32428	38364	12	32682	
1208	0	34173	32430	38368	12	32680	
1209	0	34176	32438	38382	11	32790	
1210	0	34177	32428	38391	12	32458	
1211	0	34172	32428	38392	12	32516	
1212	0	34156	32420	38396	10	32474	
1213	0	34152	32415	38372	13	32396	
1214	0	34152	32416	38376	11	32441	
1215	0	34128	32412	38378	11	32588	
1216	0	34112	32406	38356	13	32444	
1217	0	34116	32408	38372	10	32689	
1218	0	34108	32398	38353	12	32944	
1219	0	34089	32404	38367	12	32840	
1220	0	34100	32413	38361	12	32972	
1221	0	34100	32418	38376	12	33127	
1222	0	34116	32424	38404	11	32892	
1223	0	34124	32422	38406	11	32742	
1224	0	34144	32404	38400	12	33160	
1225	0	34152	32406	38398	12	32938	
1226	0	34158	32394	38416	12	32880	
1227	0	34176	32393	38438	12	32775	
1228	0	34176	32396	38440	11	32428	
1229	0	34180	32392	38456	10	32424	
1230	0	34184	32406	38446	13	32556	
1231	0	34194	32414	38430	12	32496	
1232	0	34188	32420	38434	12	32129	
1233	0	34196	32401	38428	11	32712	
1234	0	34184	32404	38418	12	32394	
1235	0	34165	32412	38406	10	32657	
1236	0	34144	32420	38372	11	32622	
1237	0	34138	32405	38345	11	32480	
1238	0	34112	32396	38324	12	32748	
1239	0	34112	32390	38302	11	32788	
1240	0	34100	32372	38296	12	32536	
1241	0	34092	32360	38273	13	32652	
1242	0	34100	32342	38249	12	32830	
1243	0	34115	32328	38222	10	32684	
1244	0	34116	32322	38208	12	32774	
1245	0	34120	32310	38206	11	32846	
1246	0	34126	32309	38180	12	32580	
1247	0	34122	32318	38166	11	32529	
1248	0	34132	32316	38160	11	32566	
1249	0	34125	32328	38151	10	32532	
1250	0	34128	32324	38140	10	32699	
1251	0	34124	32344	38146	12	32740	
1252	0	34124	32353	38149	11	32836	
1253	0	34124	32344	38151	12	32692	
1254	0	34144	32340	38186	11	32753	
1255	0	34124	32334	38204	13	32775	
1256	0	34120	32348	38204	13	32532	
1257	0	34116	32362	38230	11	32548	
1258	0	34112	32364	38232	12	32864	
1259	0	34089	32372	38252	11	32575	
1260	0	34090	32380	38270	11	32353	
1261	0	34060	32388	38268	11	32840	
1262	0	34061	32376	38273	11	32721	
1263	0	34066	32391	38298	12	32580	
1264	0	34074	32400	38324	12	32900	
1265	0	34066	32412	38346	11	32644	
1266	0	34064	32420	38344	11	32801	
1267	0	34062	32444	38341	11	32769	
1268	0	34048	32439	38375	13	32592	
1269	0	34042	32444	38369	11	32716	
1270	0	34052	32450	38362	12	32863	
1271	0	34068	32440	38360	11	32612	
1272	0	34068	32441	38359	11	32391	
1273	0	34068	32446	38357	12	32693	
1274	0	34064	32433	38341	11	32242	
1275	0	34060	32432	38341	13	32208	
1276	0	34048	32418	38304	12	32520	
1277	0	34056	32416	38292	11	32541	
1278	0	34042	32412	38298	10	32662	
1279	0	34032	32400	38272	11	32884	
1280	0	34028	32394	38269	12	32756	
1281	0	34032	32392	38225	11	32804	
1282	0	34034	32388	38201	11	33062	
1283	0	34040	32390	38220	12	32980	
1284	0	34042	32386	38228	10	32704	
1285	0	34044	32394	38239	12	33342	
1286	0	34060	32396	38252	11	33216	
1287	0	34076	32395	38254	12	32795	
1288	0	34080	32395	38264	11	32393	
1289	0	34088	32390	38255	12	32521	
1290	0	34096	32398	38273	11	32188	
1291	0	34104	32404	38292	12	32536	
1292	0	34112	32408	38320	11	32629	
1293	0	34108	32408	38341	12	32662	
1294	0	34108	32407	38342	11	32476	
1295	0	34090	32432	38348	11	32184	
1296	0	34076	32413	38346	12	32632	
1297	0	34068	32428	38345	10	32744	
1298	0	34050	32427	38340	11	32664	
1299	0	34040	32410	38336	11	32370	
1300	0	34033	32416	38324	12	32916	
1301	0	34026	32428	38338	11	32689	
1302	0	34028	32430	38345	11	32359	
1303	0	34036	32430	38346	12	32869	
1304	0	34040	32432	38316	12	32840	
1305	0	34056	32430	38324	11	32598	
1306	0	34050	32444	38325	11	32774	
1307	0	34062	32444	38342	12	32774	
1308	0	34084	32431	38356	11	32861	
1309	0	34088	32445	38364	11	32692	
1310	0	34104	32434	38368	11	32560	
1311	0	34108	32453	38378	11	32872	
1312	0	34112	32446	38376	13	32596	
1313	0	34108	32453	38371	11	32184	
1314	0	34108	32464	38386	11	32620	
1315	0	34103	32442	38389	12	32415	
1316	0	34108	32446	38374	10	32368	
1317	0	34108	32436	38372	12	32016	
1318	0	34092	32436	38376	12	32438	
1319	0	34100	32440	38372	10	32451	
1320	0	34088	32449	38368	11	32592	
1321	0	34074	32440	38377	11	32808	
1322	0	34072	32440	38380	10	32956	
1323	0	34056	32437	38400	11	33022	
1324	0	34041	32441	38385	11	32796	
1325	0	34044	32444	38364	9	33387	
1326	0	34036	32436	38352	10	32992	
1327	0	34036	32424	38350	13	33014	
1328	0	34028	32436	38330	11	32858	
1329	0	34028	32412	38335	11	32902	
1330	0	34020	32418	38328	12	32509	
1331	0	34008	32446	38327	12	32932	
1332	0	34002	32444	38321	12	32878	
1333	0	34022	32442	38316	11	32438	
1334	0	34016	32455	38340	12	32480	
1335	0	34012	32448	38353	10	32420	
1336	0	34019	32452	38351	11	32216	
1337	0	34028	32458	38345	12	32417	
1338	0	34036	32454	38358	11	32344	
1339	0	34046	32449	38352	12	32313	
1340	0	34040	32464	38341	12	32529	
1341	0	34041	32472	38343	12	32821	
1342	0	34042	32476	38368	12	32746	
1343	0	34040	32480	38366	11	32514	
1344	0	34032	32474	38398	11	33009	
1345	0	34030	32480	38416	12	32582	
1346	0	34036	32486	38440	11	32502	
1347	0	34026	32488	38449	12	32597	
1348	0	34048	32480	38434	11	32512	
1349	0	34064	32473	38440	11	32672	
1350	0	34052	32492	38440	11	32864	
1351	0	34060	32488	38440	11	32561	
1352	0	34066	32484	38459	12	32277	
1353	0	34072	32472	38452	11	32848	
1354	0	34056	32480	38460	12	32746	
1355	0	34068	32484	38466	10	32827	
1356	0	34068	32481	38474	12	32856	
1357	0	34072	32474	38471	12	32726	
1358	0	34072	32466	38465	12	32936	
1359	0	34064	32466	38456	10	32948	
1360	0	34056	32469	38458	12	33056	
1361	0	34048	32464	38455	12	32962	
1362	0	34061	32468	38440	12	32873	
1363	0	34056	32444	38450	12	32849	
1364	0	34070	32430	38448	12	32756	
1365	0	34073	32422	38444	11	32536	
1366	0	34068	32414	38404	10	32658	
1367	0	34061	32424	38422	10	32692	
1368	0	34046	32414	38393	12	32532	
1369	0	34040	32427	38376	11	32570	
1370	0	34005	32428	38368	11	32604	
1371	0	33984	32436	38376	11	32408	
1372	0	33970	32432	38364	11	32571	
1373	0	33966	32440	38384	10	32348	
1374	0	33944	32452	38369	12	32190	
1375	0	33948	32465	38362	11	32605	
1376	0	33932	32463	38361	12	32424	
1377	0	33938	32472	38332	12	32720	
1378	0	33944	32475	38328	10	32816	
1379	0	33944	32472	38308	11	32561	
1380	0	33956	32482	38325	11	32724	
1381	0	33956	32488	38339	12	32912	
1382	0	33976	32487	38319	12	33023	
1383	0	34000	32481	38328	12	32680	
1384	0	34008	32458	38332	12	32806	
1385	0	34024	32436	38332	11	32826	
1386	0	34038	32424	38334	11	32744	
1387	0	34044	32428	38314	11	32881	
1388	0	34044	32410	38312	12	32916	
1389	0	34040	32412	38326	11	32760	
1390	0	34044	32400	38304	12	32968	
1391	0	34034	32394	38316	11	33015	
1392	0	34026	32384	38332	12	32537	
1393	0	34020	32366	38316	10	32796	
1394	0	34016	32360	38304	11	32668	
1395	0	34012	32340	38312	12	32364	
1396	0	33996	32345	38288	11	31964	
1397	0	34000	32350	38268	12	32460	
1398	0	34008	32336	38264	12	32356	
1399	0	34020	32340	38260	11	32540	
1400	0	34013	32335	38268	11	32679	
1401	0	34012	32333	38240	11	32803	
1402	0	34016	32304	38240	11	32856	
1403	0	34004	32321	38256	11	32668	
1404	0	34006	32336	38250	11	32409	
1405	0	34001	32345	38253	11	32788	
1406	0	34008	32341	38261	11	32687	
1407	0	34024	32346	38276	11	32540	
1408	0	34016	32344	38278	11	32902	
1409	0	34012	32354	38292	12	32714	
1410	0	34008	32356	38296	11	32347	
1411	0	34012	32352	38316	12	32976	
1412	0	34016	32346	38316	12	32858	
1413	0	34020	32344	38329	10	33022	
1414	0	34016	32343	38328	12	32927	
1415	0	34012	32322	38333	12	32736	
1416	0	34008	32322	38338	13	32824	
1417	0	33997	32312	38340	11	32603	
1418	0	33984	32299	38348	11	32389	
1419	0	33986	32289	38312	12	32475	
1420	0	33988	32297	38306	11	32489	
1421	0	33992	32272	38316	12	32400	
1422	0	33980	32282	38288	11	32528	
1423	0	33984	32284	38269	11	32670	
1424	0	34008	32284	38236	12	32562	
1425	0	34010	32298	38244	9	32515	
1426	0	34020	32281	38228	12	32432	
1427	0	34016	32286	38236	11	32877	
1428	0	34028	32287	38224	12	32700	
1429	0	34022	32311	38212	11	32412	
1430	0	34032	32314	38216	12	32820	
1431	0	34024	32325	38238	11	32668	
1432	0	34020	32348	38274	12	32654	
1433	0	34002	32357	38296	11	32657	
1434	0	34000	32360	38320	12	32796	
1435	0	33982	32365	38316	11	32768	
1436	0	33972	32382	38330	12	32653	
1437	0	33972	32404	38341	11	32714	
1438	0	33968	32398	38344	11	32636	
1439	0	33956	32397	38350	12	32706	
1440	0	33956	32392	38370	12	32696	
1441	0	33964	32388	38380	11	32940	
1442	0	33972	32384	38364	11	32850	
1443	0	33968	32386	38380	11	32817	
1444	0	33972	32374	38372	10	32414	
1445	0	33992	32382	38381	11	32825	
1446	0	33996	32388	38381	11	32780	
1447	0	33988	32382	38372	12	32972	
1448	0	34004	32380	38368	11	33200	
1449	0	34016	32386	38396	11	32916	
1450	0	34024	32389	38392	12	32834	
1451	0	34028	32388	38388	11	32741	
1452	0	34032	32376	38380	13	32716	
1453	0	34041	32384	38388	11	32657	
1454	0	34060	32388	38416	11	32430	
1455	0	34056	32394	38432	12	32394	
1456	0	34052	32393	38432	13	32361	
1457	0	34044	32402	38441	13	32153	
1458	0	34026	32413	38474	12	32336	
1459	0	34008	32413	38470	12	32594	
1460	0	33992	32420	38494	12	32375	
1461	0	33972	32426	38497	11	32246	
1462	0	33964	32422	38485	11	32820	
1463	0	33941	32422	38468	10	32626	
1464	0	33940	32413	38456	11	32758	
1465	0	33932	32400	38436	12	32832	
1466	0	33909	32404	38409	11	32612	
1467	0	33908	32396	38404	12	32894	
1468	0	33884	32388	38414	12	32820	
1469	0	33880	32384	38400	12	33034	
1470	0	33892	32380	38388	12	32705	
1471	0	33904	32372	38366	10	32320	
1472	0	33896	32373	38351	12	32817	
1473	0	33904	32378	38375	12	32636	
1474	0	33914	32375	38345	11	32292	
1475	0	33911	32390	38360	11	32899	
1476	0	33920	32388	38392	12	32596	
1477	0	33944	32380	38423	12	32370	
1478	0	33960	32392	38433	11	32817	
1479	0	33976	32386	38436	11	32478	
1480	0	33981	32378	38464	13	32461	
1481	0	33996	32376	38458	12	33038	
1482	0	33988	32388	38464	11	33046	
1483	0	33994	32368	38474	11	32964	
1484	0	33988	32380	38462	11	32661	
1485	0	33992	32388	38453	9	32650	
1486	0	33976	32380	38436	12	32628	
1487	0	33956	32376	38430	12	32460	
1488	0	33932	32381	38438	11	32426	
1489	0	33924	32361	38413	11	32631	
1490	0	33911	32384	38427	10	32670	
1491	0	33882	32382	38428	11	32572	
1492	0	33866	32381	38394	11	32628	
1493	0	33866	32382	38376	12	32516	
1494	0	33857	32412	38372	11	32600	
1495	0	33864	32416	38360	11	33000	
1496	0	33898	32412	38356	11	32759	
1497	0	33924	32400	38356	11	33034	
1498	0	33920	32398	38353	12	32836	
1499	0	33928	32372	38388	11	32932	
1500	0	33940	32352	38416	12	32826	
1501	0	33964	32334	38432	11	32500	
1502	0	33960	32343	38453	11	32896	
1503	0	33980	32356	38464	13	32570	
1504	0	33996	32364	38472	10	32614	
1505	0	34008	32352	38452	11	32356	
1506	0	34004	32358	38440	12	32212	
1507	0	34016	32357	38436	11	32519	
1508	0	34000	32373	38424	11	32430	
1509	0	33984	32374	38420	10	32615	
1510	0	33964	32365	38400	11	32528	
1511	0	33928	32369	38376	11	32557	
1512	0	33916	32360	38357	11	32775	
1513	0	33904	32364	38326	10	32617	
1514	0	33880	32362	38276	11	32740	
1515	0	33864	32356	38258	13	33012	
1516	0	33865	32356	38224	13	32914	
1517	0	33858	32370	38218	11	33036	
1518	0	33856	32401	38186	12	33012	
1519	0	33860	32396	38172	11	32694	
1520	0	33868	32390	38165	11	32554	
1521	0	33888	32393	38176	11	32788	
1522	0	33901	32386	38218	11	32476	
1523	0	33910	32400	38236	12	32532	
1524	0	33921	32396	38246	11	32748	
1525	0	33943	32405	38284	10	32590	
1526	0	33944	32416	38330	12	32698	
1527	0	33964	32425	38378	11	32534	
1528	0	33976	32415	38420	10	32708	
1529	0	33980	32420	38452	11	32586	
1530	0	33970	32420	38488	12	32414	
1531	0	33974	32424	38522	10	32456	
1532	0	33980	32412	38542	11	32734	
1533	0	33960	32410	38544	11	32674	
1534	0	33954	32386	38570	10	32645	
1535	0	33928	32377	38548	13	32772	
1536	0	33908	32365	38542	12	32787	
1537	0	33892	32362	38512	12	32844	
1538	0	33877	32359	38502	12	32846	
1539	0	33840	32350	38477	11	32913	
1540	0	33836	32354	38428	10	32873	
1541	0	33824	32352	38394	11	32824	
1542	0	33832	32348	38341	12	32726	
1543	0	33836	32346	38300	11	32744	
1544	0	33844	32349	38260	12	32488	
1545	0	33864	32341	38220	13	32664	
1546	0	33864	32359	38205	12	32685	
1547	0	33878	32362	38196	11	32520	
1548	0	33890	32373	38184	12	32756	
1549	0	33904	32386	38180	12	32704	
1550	0	33910	32396	38184	11	32721	
1551	0	33926	32394	38204	11	32738	
1552	0	33940	32395	38214	11	32820	
1553	0	33964	32400	38236	11	32696	
1554	0	33980	32408	38266	11	32707	
1555	0	33988	32408	38300	11	32583	
1556	0	33996	32424	38316	12	32540	
1557	0	34004	32417	38361	12	32646	
1558	0	34016	32424	38412	11	32451	
1559	0	34016	32419	38452	11	32564	
1560	0	34014	32406	38484	11	32694	
1561	0	34004	32414	38540	11	32430	
1562	0	34008	32406	38572	12	32263	
1563	0	33994	32408	38572	13	32740	
1564	0	33992	32389	38575	12	32562	
1565	0	33963	32366	38578	11	32796	
1566	0	33944	32354	38542	12	33100	
1567	0	33938	32338	38513	11	33332	
1568	0	33920	32328	38490	12	33328	
1569	0	33898	32332	38472	11	33015	
1570	0	33893	32327	38460	12	32820	
1571	0	33880	32322	38440	12	32824	
1572	0	33864	32324	38397	11	33030	
1573	0	33850	32334	38364	11	32953	
1574	0	33844	32333	38320	10	33016	
1575	0	33840	32336	38296	11	32832	
1576	0	33844	32340	38248	12	32410	
1577	0	33844	32350	38218	11	32485	
1578	0	33846	32346	38203	10	32316	
1579	0	33864	32344	38178	10	32590	
1580	0	33882	32324	38160	12	32822	
1581	0	33904	32316	38150	13	32817	
1582	0	33920	32328	38140	11	32759	
1583	0	33933	32320	38137	12	32465	
1584	0	33952	32329	38120	12	32044	
1585	0	33972	32348	38129	11	31916	
1586	0	33974	32334	38118	11	32662	
1587	0	33984	32332	38166	12	32434	
1588	0	33994	32338	38184	11	32653	
1589	0	33968	32338	38216	10	32588	
1590	0	33968	32332	38254	12	32702	
1591	0	33972	32328	38298	11	32714	
1592	0	33965	32320	38328	11	32555	
1593	0	33962	32303	38325	13	32470	
1594	0	33948	32306	38353	10	32708	
1595	0	33929	32280	38364	13	32578	
1596	0	33922	32280	38376	11	32392	
1597	0	33940	32280	38389	11	32796	
1598	0	33948	32285	38400	12	32658	
1599	0	33969	32286	38386	12	32644	
1600	0	33980	32278	38380	12	32976	
1601	0	33987	32270	38354	12	32889	
1602	0	34004	32281	38356	12	32964	
1603	0	34008	32285	38340	10	33150	
1604	0	34018	32294	38340	11	32972	
1605	0	34028	32292	38335	12	32521	
1606	0	34028	32296	38327	13	32893	
1607	0	34024	32320	38340	11	32624	
1608	0	34020	32324	38332	12	32682	
1609	0	34014	32309	38341	13	32808	
1610	0	34008	32314	38353	12	32448	
1611	0	34002	32302	38365	12	32580	
1612	0	33988	32312	38350	12	32079	
1613	0	33976	32313	38364	11	32579	
1614	0	33976	32316	38352	11	32340	
1615	0	33960	32313	38364	11	32510	
1616	0	33961	32308	38362	11	32498	
1617	0	33964	32308	38344	11	32616	
1618	0	33960	32316	38342	11	32540	
1619	0	33964	32308	38364	11	32694	
1620	0	33956	32312	38348	12	32828	
1621	0	33952	32322	38356	11	32928	
1622	0	33946	32321	38354	12	32964	
1623	0	33952	32329	38313	11	33058	
1624	0	33960	32324	38276	11	32902	
1625	0	33970	32318	38279	11	32910	
1626	0	33960	32320	38270	11	32984	
1627	0	33960	32324	38280	10	33180	
1628	0	33956	32328	38271	11	32844	
1629	0	33964	32320	38248	12	32696	
1630	0	33968	32312	38256	11	32644	
1631	0	33950	32308	38263	11	32628	
1632	0	33944	32316	38279	11	32201	
1633	0	33936	32315	38242	12	32320	
1634	0	33936	32317	38236	11	32500	
1635	0	33952	32309	38272	11	32311	
1636	0	33936	32307	38292	12	32448	
1637	0	33929	32312	38318	12	32390	
1638	0	33928	32322	38328	11	32572	
1639	0	33932	32308	38348	11	33020	
1640	0	33928	32322	38368	10	32868	
1641	0	33946	32314	38365	13	32792	
1642	0	33940	32304	38352	11	33258	
1643	0	33954	32322	38368	11	33300	
1644	0	33953	32321	38371	12	33126	
1645	0	33964	32321	38365	11	32876	
1646	0	33960	32328	38356	11	32889	
1647	0	33980	32324	38337	12	32829	
1648	0	33996	32316	38337	11	32592	
1649	0	33984	32324	38336	12	32128	
1650	0	33985	32325	38335	13	32489	
1651	0	34004	32320	38330	11	32257	
1652	0	34004	32311	38324	12	32016	
1653	0	33984	32296	38314	11	32450	
1654	0	33988	32284	38324	10	32160	
1655	0	33976	32277	38304	11	32016	
1656	0	33980	32263	38303	11	32441	
1657	0	33992	32272	38281	11	32471	
1658	0	33998	32262	38281	10	32775	
1659	0	33992	32258	38312	11	32820	
1660	0	33994	32263	38300	12	33050	
1661	0	33992	32262	38320	11	33200	
1662	0	33996	32251	38337	13	32914	
1663	0	34028	32237	38332	11	33052	
1664	0	34030	32220	38352	12	32995	
1665	0	34032	32221	38348	10	32885	
1666	0	34056	32212	38332	12	33134	
1667	0	34072	32206	38351	12	32712	
1668	0	34089	32202	38378	11	32120	
1669	0	34078	32199	38394	11	32480	
1670	0	34104	32168	38421	11	32377	
1671	0	34108	32185	38400	11	32380	
1672	0	34088	32182	38394	13	32732	
1673	0	34084	32174	38348	11	32706	
1674	0	34096	32193	38350	10	32921	
1675	0	34060	32183	38322	11	32628	
1676	0	34060	32176	38304	10	32682	
1677	0	34052	32169	38292	12	32727	
1678	0	34052	32161	38292	10	32625	
1679	0	34048	32159	38292	11	32726	
1680	0	34056	32164	38292	11	32654	
1681	0	34050	32166	38292	12	32664	
1682	0	34042	32169	38300	12	32686	
1683	0	34060	32180	38294	12	32460	
1684	0	34052	32174	38300	12	32608	
1685	0	34068	32172	38312	12	32589	
1686	0	34073	32177	38326	11	32740	
1687	0	34072	32186	38326	11	32817	
1688	0	34064	32204	38360	10	32636	
1689	0	34070	32200	38368	13	32434	
1690	0	34068	32204	38372	11	32876	
1691	0	34066	32206	38380	12	32725	
1692	0	34068	32204	38412	12	32866	
1693	0	34068	32200	38424	11	32793	
1694	0	34060	32200	38437	11	32617	
1695	0	34044	32213	38420	11	32568	
1696	0	34036	32212	38420	11	33064	
1697	0	34018	32214	38440	12	32710	
1698	0	34010	32228	38440	12	32492	
1699	0	34004	32244	38436	12	32393	
1700	0	33992	32247	38407	12	32028	
1701	0	33992	32244	38420	11	32696	
1702	0	33996	32238	38428	11	32593	
1703	0	34006	32227	38422	12	32631	
1704	0	34016	32210	38412	12	32540	
1705	0	34028	32222	38426	11	32422	
1706	0	34030	32214	38406	11	32938	
1707	0	34036	32220	38426	13	32844	
1708	0	34052	32209	38418	11	32978	
1709	0	34052	32194	38402	11	32775	
1710	0	34064	32206	38388	10	32618	
1711	0	34056	32193	38354	11	33027	
1712	0	34056	32202	38348	11	32654	
1713	0	34040	32204	38351	12	32301	
1714	0	34028	32204	38328	11	32785	
1715	0	34024	32190	38341	11	32430	
1716	0	34008	32180	38359	11	32520	
1717	0	34000	32197	38356	10	32835	
1718	0	33996	32196	38370	10	32607	
1719	0	33976	32204	38336	12	32698	
1720	0	33988	32211	38356	11	32841	
1721	0	33988	32210	38384	12	32668	
1722	0	33992	32228	38381	11	32747	
1723	0	33988	32212	38400	11	32398	
1724	0	33992	32220	38424	10	32528	
1725	0	33996	32229	38422	10	32512	
1726	0	34004	32228	38438	13	32270	
1727	0	34016	32230	38464	11	32117	
1728	0	34020	32234	38468	11	32577	
1729	0	34024	32228	38472	11	32492	
1730	0	34042	32212	38480	11	32808	
1731	0	34040	32250	38469	10	32886	
1732	0	34044	32252	38478	11	32724	
1733	0	34052	32263	38464	11	32724	
1734	0	34048	32257	38452	11	32968	
1735	0	34052	32232	38428	11	32796	
1736	0	34052	32226	38407	12	32916	
1737	0	34060	32212	38380	12	32815	
1738	0	34052	32192	38374	12	32800	
1739	0	34052	32189	38364	12	32656	
1740	0	34040	32188	38345	12	32794	
1741	0	34012	32192	38318	11	32616	
1742	0	34008	32186	38296	11	32420	
1743	0	33984	32172	38266	11	32812	
1744	0	33982	32176	38236	11	32753	
1745	0	33980	32161	38204	11	32760	
1746	0	33986	32162	38194	11	32617	
1747	0	33984	32162	38206	12	32644	
1748	0	33988	32164	38205	11	32716	
1749	0	34004	32186	38225	11	32426	
1750	0	33998	32186	38249	13	32690	
1751	0	34000	32182	38229	13	32874	
1752	0	34012	32196	38216	12	32609	
1753	0	34008	32204	38236	12	32248	
1754	0	34000	32207	38220	11	32824	
1755	0	33984	32222	38210	9	32711	
1756	0	33976	32236	38241	12	32596	
1757	0	33970	32226	38260	11	32789	
1758	0	33962	32236	38276	11	32724	
1759	0	33954	32232	38268	12	32864	
1760	0	33948	32228	38285	12	32946	
1761	0	33932	32227	38316	12	32524	
1762	0	33908	32240	38308	12	32744	
1763	0	33900	32243	38321	12	32762	
1764	0	33906	32244	38314	10	32528	
1765	0	33896	32263	38314	11	32702	
1766	0	33880	32276	38293	11	32784	
1767	0	33876	32261	38296	11	32701	
1768	0	33872	32260	38293	12	32518	
1769	0	33872	32256	38302	11	32516	
1770	0	33876	32252	38272	11	32660	
1771	0	33872	32248	38236	12	32568	
1772	0	33872	32261	38266	12	32676	
1773	0	33878	32271	38240	10	32698	
1774	0	33870	32280	38228	13	32434	
1775	0	33872	32280	38220	11	32662	
1776	0	33876	32288	38204	13	32672	
1777	0	33876	32276	38197	11	33162	
1778	0	33876	32273	38196	12	32976	
1779	0	33868	32270	38204	12	32612	
1780	0	33852	32260	38196	12	32735	
1781	0	33850	32252	38201	11	32763	
1782	0	33856	32250	38216	11	32689	
1783	0	33846	32240	38189	12	32888	
1784	0	33845	32235	38185	12	32934	
1785	0	33852	32216	38184	11	32668	
1786	0	33868	32203	38170	11	32634	
1787	0	33880	32190	38160	12	32708	
1788	0	33920	32183	38167	12	32560	
1789	0	33944	32172	38149	13	32668	
1790	0	33986	32158	38148	11	32931	
1791	0	34008	32151	38151	12	32794	
1792	0	34012	32144	38128	12	32932	
1793	0	34026	32145	38138	10	32760	
1794	0	34024	32140	38125	11	32384	
1795	0	34028	32146	38140	10	32537	
1796	0	34021	32140	38128	10	32418	
1797	0	34020	32148	38144	11	32472	
1798	0	34005	32140	38151	11	32408	
1799	0	34008	32128	38178	10	32494	
1800	0	34004	32144	38184	11	32752	
1801	0	34004	32149	38220	11	32512	
1802	0	34004	32162	38218	11	32877	
1803	0	33996	32191	38262	10	32941	
1804	0	33992	32194	38273	11	32687	
1805	0	33984	32214	38298	11	32817	
1806	0	33988	32228	38330	10	32558	
1807	0	34012	32237	38348	12	32542	
1808	0	34016	32245	38365	11	32620	
1809	0	34016	32252	38392	11	32620	
1810	0	34010	32268	38417	12	33176	
1811	0	34024	32274	38441	11	32942	
1812	0	34016	32278	38440	13	32743	
1813	0	34024	32286	38452	11	32852	
1814	0	34034	32295	38456	10	33110	
1815	0	34026	32312	38452	12	32720	
1816	0	34026	32298	38474	13	32606	
1817	0	34036	32295	38478	11	32784	
1818	0	34024	32308	38478	10	32584	
1819	0	34018	32307	38496	10	32504	
1820	0	34012	32329	38494	12	32620	
1821	0	34000	32333	38493	13	32481	
1822	0	33990	32348	38514	11	32805	
1823	0	33981	32364	38500	13	32866	
1824	0	33978	32380	38509	12	32492	
1825	0	33972	32394	38498	12	32528	
1826	0	33976	32384	38514	11	32482	
1827	0	33970	32384	38528	12	32670	
1828	0	33972	32397	38521	11	32646	
1829	0	33964	32397	38533	12	32768	
1830	0	33969	32404	38540	11	32764	
1831	0	33980	32398	38552	11	32620	
1832	0	33992	32393	38554	10	32340	
1833	0	33992	32392	38544	12	32749	
1834	0	33984	32396	38548	11	32720	
1835	0	33976	32400	38574	12	32377	
1836	0	33978	32408	38576	11	32885	
1837	0	33968	32413	38568	12	32410	
1838	0	33980	32412	38572	11	32533	
1839	0	33972	32418	38580	11	32669	
1840	0	33972	32416	38576	11	32638	
1841	0	33968	32404	38596	10	32680	
1842	0	33962	32400	38572	12	32885	
1843	0	33968	32389	38572	12	32938	
1844	0	33968	32394	38561	10	32812	
1845	0	33956	32390	38546	12	32694	
1846	0	33952	32376	38540	10	33000	
1847	0	33972	32340	38520	12	32889	
1848	0	33968	32340	38526	12	32805	
1849	0	33968	32312	38517	11	32666	
1850	0	33964	32290	38500	11	32324	
1851	0	33948	32284	38434	11	32549	
1852	0	33952	32270	38424	11	32500	
1853	0	33941	32272	38404	11	32589	
1854	0	33952	32251	38398	12	32500	
1855	0	33948	32262	38370	12	32820	
1856	0	33956	32276	38352	10	32583	
1857	0	33950	32284	38342	12	32332	
1858	0	33944	32294	38328	13	32756	
1859	0	33944	32300	38326	11	32566	
1860	0	33952	32298	38316	11	32389	
1861	0	33932	32308	38328	11	32814	
1862	0	33936	32325	38340	13	32550	
1863	0	33933	32316	38344	12	32804	
1864	0	33928	32334	38348	11	32796	
1865	0	33912	32348	38352	11	32476	
1866	0	33900	32348	38356	10	32850	
1867	0	33888	32360	38367	12	32984	
1868	0	33869	32380	38376	11	32795	
1869	0	33880	32381	38377	12	32888	
1870	0	33864	32391	38376	11	32868	
1871	0	33860	32396	38368	12	32785	
1872	0	33862	32384	38377	11	32604	
1873	0	33848	32394	38390	11	32412	
1874	0	33860	32392	38384	12	32436	
1875	0	33848	32383	38378	12	32314	
1876	0	33840	32390	38370	11	32552	
1877	0	33838	32376	38382	11	32114	
1878	0	33848	32373	38368	10	32705	
1879	0	33854	32376	38357	11	32792	
1880	0	33860	32361	38361	12	32944	
1881	0	33868	32368	38353	12	32992	
1882	0	33876	32376	38344	12	33345	
1883	0	33865	32385	38316	12	33020	
1884	0	33864	32377	38301	12	32972	
1885	0	33884	32382	38279	11	32764	
1886	0	33880	32372	38276	12	32769	
1887	0	33874	32369	38268	11	32682	
1888	0	33866	32377	38280	11	32624	
1889	0	33861	32384	38260	11	32428	
1890	0	33840	32382	38249	11	32500	
1891	0	33844	32368	38256	12	32663	
1892	0	33828	32374	38248	11	32428	
1893	0	33818	32372	38242	13	32168	
1894	0	33816	32381	38240	11	32592	
1895	0	33804	32380	38242	10	32449	
1896	0	33796	32366	38233	12	32392	
1897	0	33792	32361	38257	11	32615	
1898	0	33792	32361	38266	11	32737	
1899	0	33772	32357	38260	11	32888	
1900	0	33780	32362	38280	11	32584	
1901	0	33778	32356	38300	10	32380	
1902	0	33788	32356	38296	13	32981	
1903	0	33812	32359	38294	10	33036	
1904	0	33812	32361	38282	11	33040	
1905	0	33836	32350	38292	11	32524	
1906	0	33866	32330	38316	12	32500	
1907	0	33880	32320	38328	12	32658	
1908	0	33892	32312	38304	11	32991	
1909	0	33896	32310	38296	13	32871	
1910	0	33914	32309	38296	11	32501	
1911	0	33920	32290	38272	12	32606	
1912	0	33936	32280	38242	12	32565	
1913	0	33944	32242	38228	11	32478	
1914	0	33956	32244	38200	11	32465	
1915	0	33960	32236	38180	11	32494	
1916	0	33961	32232	38189	10	32601	
1917	0	33958	32225	38180	10	32464	
1918	0	33964	32225	38172	11	32303	
1919	0	33972	32220	38186	11	32877	
1920	0	33996	32222	38189	11	32868	
1921	0	34002	32227	38204	12	33080	
1922	0	34002	32229	38228	11	32881	
1923	0	34014	32230	38255	11	32832	
1924	0	34025	32234	38273	11	32684	
1925	0	34032	32232	38297	13	32588	
1926	0	34032	32220	38344	12	32893	
1927	0	34016	32224	38362	12	32710	
1928	0	34018	32218	38354	11	32856	
1929	0	34010	32222	38363	11	32896	
1930	0	33996	32224	38377	10	32682	
1931	0	33992	32228	38400	11	32438	
1932	0	33988	32230	38407	11	32820	
1933	0	33992	32224	38400	11	32461	
1934	0	33980	32219	38407	12	32226	
1935	0	33982	32207	38407	11	32520	
1936	0	33984	32206	38407	13	32294	
1937	0	33980	32216	38372	12	32030	
1938	0	34000	32201	38372	13	32698	
1939	0	34008	32208	38399	10	32493	
1940	0	34010	32193	38404	12	32218	
1941	0	34032	32185	38428	11	32811	
1942	0	34046	32158	38452	12	32716	
1943	0	34044	32134	38465	11	32892	
1944	0	34064	32110	38494	11	33084	
1945	0	34096	32081	38497	12	32760	
1946	0	34110	32086	38496	12	32762	
1947	0	34136	32085	38492	11	32748	
1948	0	34140	32126	38474	11	32652	
1949	0	34139	32160	38459	11	32936	
1950	0	34132	32184	38418	11	32666	
1951	0	34100	32211	38348	12	32693	
1952	0	34068	32222	38297	12	32612	
1953	0	34028	32220	38225	11	32860	
1954	0	33978	32201	38162	12	32908	
1955	0	33924	32208	38113	10	32449	
1956	0	33898	32178	38082	10	32725	
1957	0	33874	32136	38058	12	32697	
1958	0	33872	32118	38056	12	32616	
1959	0	33858	32112	38070	10	32484	
1960	0	33882	32086	38090	12	32263	
1961	0	33920	32055	38102	12	32732	
1962	0	33984	32014	38150	11	32568	
1963	0	34040	31993	38196	11	32234	
1964	0	34098	31973	38248	11	32884	
1965	0	34144	31944	38287	11	32474	
1966	0	34194	31928	38328	10	32609	
1967	0	34208	31916	38380	11	32775	
1968	0	34228	31918	38420	11	32594	
1969	0	34250	31926	38474	11	32569	
1970	0	34256	31922	38500	11	32869	
1971	0	34256	31933	38508	13	32684	
1972	0	34244	31944	38531	11	32484	
1973	0	34217	31966	38518	12	32706	
1974	0	34208	31956	38498	11	32496	
1975	0	34176	31968	38496	10	32700	
1976	0	34148	31980	38461	11	32562	
1977	0	34128	32000	38428	11	32671	
1978	0	34110	32016	38388	11	32842	
1979	0	34100	32028	38341	11	32610	
1980	0	34076	32055	38324	11	32714	
1981	0	34066	32069	38319	10	32792	
1982	0	34076	32072	38303	11	32662	
1983	0	34062	32077	38281	12	32688	
1984	0	34060	32087	38252	12	32764	
1985	0	34072	32104	38260	11	32692	
1986	0	34064	32110	38244	11	32750	
1987	0	34088	32124	38256	11	32748	
1988	0	34080	32136	38242	11	32773	
1989	0	34068	32145	38247	12	33044	
1990	0	34058	32166	38276	10	32632	
1991	0	34036	32166	38296	13	32480	
1992	0	34040	32172	38310	11	32838	
1993	0	34032	32180	38324	12	32612	
1994	0	34012	32207	38344	11	32633	
1995	0	33998	32197	38361	11	32448	
1996	0	33984	32200	38340	11	32544	
1997	0	33956	32203	38356	11	32653	
1998	0	33962	32209	38378	11	32554	
1999	0	33953	32200	38372	13	32610	
2000	0	33948	32208	38359	10	32804	
2001	0	33940	32202	38364	11	32556	
2002	0	33920	32215	38368	11	32672	
2003	0	33924	32220	38378	12	32908	
2004	0	33924	32232	38383	10	32864	
2005	0	33925	32229	38356	10	32826	
2006	0	33916	32244	38329	12	33086	
2007	0	33908	32245	38300	12	32728	
2008	0	33920	32240	38288	11	32556	
2009	0	33900	32260	38274	11	32768	
2010	0	33890	32247	38248	11	32692	
2011	0	33880	32252	38244	11	32961	
2012	0	33877	32256	38232	11	32941	
2013	0	33860	32263	38212	12	32591	
2014	0	33869	32245	38203	12	32646	
2015	0	33864	32252	38180	10	32535	
2016	0	33856	32254	38205	12	32562	
2017	0	33864	32263	38245	11	32686	
2018	0	33860	32240	38248	12	32372	
2019	0	33872	32244	38228	11	32151	
2020	0	33890	32248	38264	11	32738	
2021	0	33880	32250	38276	13	32637	
2022	0	33908	32272	38295	12	32404	
2023	0	33900	32262	38336	12	32740	
2024	0	33920	32263	38348	11	32666	
2025	0	33904	32273	38380	12	32696	
2026	0	33901	32277	38393	11	32596	
2027	0	33908	32293	38406	10	32678	
2028	0	33900	32274	38428	12	32775	
2029	0	33903	32273	38444	13	32860	
2030	0	33902	32264	38445	11	32384	
2031	0	33900	32284	38458	11	32414	
2032	0	33900	32286	38456	13	32526	
2033	0	33898	32278	38453	11	32612	
2034	0	33904	32280	38446	12	32675	
2035	0	33882	32292	38452	10	32940	
2036	0	33872	32284	38433	12	32788	
2037	0	33888	32284	38410	11	33040	
2038	0	33878	32300	38407	12	32897	
2039	0	33892	32296	38392	11	33049	
2040	0	33880	32290	38376	12	33169	
2041	0	33904	32279	38376	12	32700	
2042	0	33894	32290	38376	11	32576	
2043	0	33892	32292	38370	11	32351	
2044	0	33894	32292	38356	12	32424	
2045	0	33900	32282	38354	11	32614	
2046	0	33900	32274	38368	11	32504	
2047	0	33880	32276	38370	12	32700	
2048	0	33892	32268	38380	11	32608	
2049	0	33888	32260	38394	13	32784	
2050	0	33896	32260	38392	11	32949	
2051	0	33882	32263	38380	10	32924	
2052	0	33884	32274	38378	11	32764	
2053	0	33876	32276	38388	13	32748	
2054	0	33876	32274	38388	10	32567	
2055	0	33870	32271	38396	11	32628	
2056	0	33880	32272	38416	11	32618	
2057	0	33894	32274	38439	11	32784	
2058	0	33892	32277	38431	11	32929	
2059	0	33905	32274	38433	13	32608	
2060	0	33908	32280	38406	13	32653	
2061	0	33905	32273	38433	12	32492	
2062	0	33920	32274	38436	12	32525	
2063	0	33920	32260	38431	10	32662	
2064	0	33920	32240	38407	10	32416	
2065	0	33924	32230	38407	11	32345	
2066	0	33921	32216	38407	13	32812	
2067	0	33934	32212	38384	11	32809	
2068	0	33940	32192	38363	13	32884	
2069	0	33935	32181	38354	11	32906	
2070	0	33944	32171	38340	11	33032	
2071	0	33940	32164	38328	12	32876	
2072	0	33936	32168	38309	11	32772	
2073	0	33944	32186	38289	12	32604	
2074	0	33934	32184	38284	12	32540	
2075	0	33956	32174	38252	11	32612	
2076	0	33950	32188	38268	12	32345	
2077	0	33946	32193	38303	13	32100	
2078	0	33940	32210	38306	11	32652	
2079	0	33932	32218	38324	12	32720	
2080	0	33924	32228	38351	11	32940	
2081	0	33907	32248	38336	10	33024	
2082	0	33876	32258	38354	12	32893	
2083	0	33872	32282	38384	12	32929	
2084	0	33864	32300	38404	11	32656	
2085	0	33844	32284	38398	13	32884	
2086	0	33836	32281	38412	13	33066	
2087	0	33832	32291	38420	11	32837	
2088	0	33824	32288	38424	11	32685	
2089	0	33809	32284	38417	11	32547	
2090	0	33794	32298	38420	12	32404	
2091	0	33796	32304	38402	12	32614	
2092	0	33804	32302	38382	12	32604	
2093	0	33808	32314	38388	10	32296	
2094	0	33808	32286	38372	11	32559	
2095	0	33808	32297	38348	11	32460	
2096	0	33820	32289	38338	12	32544	
2097	0	33824	32290	38344	13	32472	
2098	0	33832	32280	38337	12	32665	
2099	0	33841	32276	38352	12	32724	
2100	0	33868	32263	38353	10	32535	
2101	0	33850	32276	38357	11	32712	
2102	0	33860	32276	38364	11	32731	
2103	0	33868	32289	38388	12	32552	
2104	0	33884	32258	38388	11	32728	
2105	0	33874	32256	38358	11	32768	
2106	0	33868	32268	38356	11	32564	
2107	0	33870	32259	38356	12	32575	
2108	0	33856	32260	38364	11	32648	
2109	0	33864	32252	38373	12	32514	
2110	0	33860	32241	38396	11	32764	
2111	0	33852	32242	38405	12	32708	
2112	0	33844	32247	38390	12	32472	
2113	0	33848	32254	38416	13	32761	
2114	0	33844	32252	38393	11	32729	
2115	0	33844	32263	38406	10	32924	
2116	0	33844	32263	38388	11	32886	
2117	0	33824	32276	38386	12	32922	
2118	0	33832	32282	38391	12	32964	
2119	0	33824	32274	38384	11	32726	
2120	0	33826	32276	38380	11	32782	
2121	0	33805	32271	38364	12	32734	
2122	0	33816	32263	38354	11	32744	
2123	0	33794	32272	38336	12	32744	
2124	0	33798	32263	38336	11	32470	
2125	0	33781	32243	38316	11	32556	
2126	0	33784	32248	38300	10	32419	
2127	0	33777	32246	38282	12	32461	
2128	0	33776	32220	38261	10	32524	
2129	0	33776	32225	38264	12	32496	
2130	0	33786	32220	38277	12	32370	
2131	0	33824	32208	38288	11	32748	
2132	0	33860	32206	38279	13	32440	
2133	0	33876	32193	38276	13	32300	
2134	0	33892	32184	38276	11	32876	
2135	0	33904	32180	38292	10	32799	
2136	0	33905	32164	38304	12	32720	
2137	0	33917	32156	38324	12	32853	
2138	0	33936	32154	38352	11	32674	
2139	0	33932	32164	38366	12	32826	
2140	0	33940	32156	38400	12	32804	
2141	0	33922	32146	38430	11	32744	
2142	0	33922	32142	38453	12	33086	
2143	0	33928	32132	38460	12	32896	
2144	0	33925	32114	38450	12	32749	
2145	0	33936	32105	38457	11	32353	
2146	0	33934	32090	38461	12	32110	
2147	0	33952	32076	38467	11	32725	
2148	0	33960	32072	38464	11	32641	
2149	0	33978	32055	38466	11	32568	
2150	0	33987	32037	38474	9	32789	
2151	0	34028	32029	38474	11	32296	
2152	0	34048	32020	38501	12	32630	
2153	0	34072	31996	38512	12	32854	
2154	0	34100	31988	38508	11	32832	
2155	0	34128	31956	38549	11	32520	
2156	0	34132	31934	38580	11	32782	
2157	0	34164	31942	38606	11	32568	
2158	0	34176	31945	38640	11	32674	
2159	0	34172	31942	38655	11	32492	
2160	0	34172	31970	38672	10	32676	
2161	0	34168	31990	38688	11	32540	
2162	0	34166	32006	38674	13	32080	
2163	0	34132	32036	38671	12	32546	
2164	0	34104	32076	38660	11	32813	
2165	0	34066	32092	38639	13	32924	
2166	0	34040	32115	38614	11	32687	
2167	0	34010	32122	38594	11	32742	
2168	0	33964	32128	38572	12	32660	
2169	0	33928	32159	38548	11	32745	
2170	0	33904	32151	38535	12	32870	
2171	0	33880	32170	38521	11	32868	
2172	0	33844	32180	38505	11	32781	
2173	0	33838	32192	38487	11	32505	
2174	0	33818	32207	38448	11	32587	
2175	0	33816	32212	38432	11	32664	
2176	0	33823	32223	38428	11	32572	
2177	0	33808	32232	38421	10	32820	
2178	0	33814	32236	38400	12	32728	
2179	0	33815	32229	38420	12	32769	
2180	0	33840	32214	38436	12	32749	
2181	0	33848	32182	38452	12	32818	
2182	0	33872	32180	38481	13	32734	
2183	0	33896	32170	38472	10	32730	
2184	0	33916	32148	38480	11	32823	
2185	0	33930	32120	38513	13	32412	
2186	0	33936	32108	38519	12	32614	
2187	0	33932	32095	38520	10	32638	
2188	0	33928	32080	38526	12	32420	
2189	0	33916	32071	38512	12	32526	
2190	0	33912	32076	38516	12	32728	
2191	0	33894	32065	38502	13	32612	
2192	0	33888	32061	38487	11	32676	
2193	0	33862	32084	38478	11	32692	
2194	0	33870	32070	38484	12	32834	
2195	0	33864	32088	38468	11	32928	
2196	0	33868	32092	38452	11	33100	
2197	0	33844	32117	38436	11	33174	
2198	0	33844	32124	38406	12	32756	
2199	0	33848	32135	38393	12	32863	
2200	0	33846	32154	38374	12	32924	
2201	0	33841	32148	38372	11	32263	
2202	0	33833	32164	38343	11	32781	
2203	0	33840	32158	38336	11	32756	
2204	0	33824	32156	38342	12	32520	
2205	0	33805	32152	38316	12	32406	
2206	0	33789	32143	38284	11	32594	
2207	0	33792	32126	38312	11	32708	
2208	0	33773	32112	38308	11	32814	
2209	0	33776	32092	38312	12	32714	
2210	0	33778	32065	38327	11	32834	
2211	0	33790	32038	38356	12	32538	
2212	0	33814	32026	38346	11	32474	
2213	0	33836	32000	38364	11	32568	
2214	0	33864	32007	38378	10	32692	
2215	0	33888	32012	38405	12	32652	
2216	0	33916	32026	38417	13	32545	
2217	0	33944	32062	38407	12	32638	
2218	0	33937	32076	38407	13	32660	
2219	0	33946	32084	38400	11	32708	
2220	0	33940	32110	38364	12	32612	
2221	0	33900	32124	38312	11	32826	
2222	0	33860	32140	38268	11	32888	
2223	0	33832	32144	38221	12	32871	
2224	0	33804	32136	38178	11	32832	
2225	0	33762	32133	38148	11	32688	
2226	0	33752	32108	38128	10	32628	
2227	0	33734	32087	38122	12	32860	
2228	0	33728	32083	38110	11	32878	
2229	0	33726	32069	38112	11	32872	
2230	0	33754	32060	38125	11	32601	
2231	0	33777	32051	38151	13	32578	
2232	0	33798	32049	38211	11	32384	
2233	0	33826	32054	38238	11	32476	
2234	0	33860	32052	38272	10	32986	
2235	0	33864	32050	38299	12	32641	
2236	0	33892	32032	38342	11	32684	
2237	0	33912	32034	38372	12	32558	
2238	0	33921	32028	38414	11	32560	
2239	0	33920	32029	38429	12	32824	
2240	0	33940	32033	38418	12	32600	
2241	0	33924	32032	38432	11	32216	
2242	0	33917	32035	38424	11	32708	
2243	0	33904	32045	38425	12	32560	
2244	0	33888	32049	38416	11	32688	
2245	0	33872	32052	38414	11	32780	
2246	0	33865	32056	38394	11	32948	
2247	0	33832	32051	38396	12	32822	
2248	0	33818	32076	38375	11	32581	
2249	0	33790	32068	38338	12	32678	
2250	0	33778	32048	38311	10	32653	
2251	0	33768	32024	38320	11	32816	
2252	0	33784	31988	38322	10	32899	
2253	0	33784	31970	38320	12	32436	
2254	0	33804	31988	38356	11	32540	
2255	0	33824	32028	38358	11	32568	
2256	0	33844	32059	38391	13	32420	
2257	0	33848	32100	38364	11	32586	
2258	0	33860	32148	38356	11	32825	
2259	0	33849	32180	38324	12	32616	
2260	0	33812	32199	38288	11	32705	
2261	0	33772	32193	38264	11	33082	
2262	0	33736	32158	38244	11	32908	
2263	0	33704	32116	38263	11	32937	
2264	0	33668	32085	38266	12	32728	
2265	0	33660	32082	38252	11	32810	
2266	0	33668	32090	38250	10	32745	
2267	0	33676	32079	38294	11	32516	
2268	0	33684	32120	38302	10	32476	
2269	0	33704	32149	38312	11	32498	
2270	0	33720	32149	38320	11	32748	
2271	0	33740	32144	38330	11	32659	
2272	0	33750	32122	38364	12	32468	
2273	0	33764	32120	38364	11	32480	
2274	0	33786	32132	38354	11	32773	
2275	0	33784	32124	38372	11	32623	
2276	0	33784	32152	38396	10	32818	
2277	0	33780	32149	38392	11	32580	
2278	0	33772	32165	38384	11	32730	
2279	0	33760	32160	38398	11	32693	
2280	0	33740	32152	38384	12	32758	
2281	0	33736	32141	38352	11	32800	
2282	0	33712	32124	38344	12	32578	
2283	0	33704	32092	38328	12	32798	
2284	0	33704	32092	38310	10	32452	
2285	0	33692	32085	38280	10	32318	
2286	0	33674	32104	38256	10	32892	
2287	0	33662	32124	38225	11	32804	
2288	0	33660	32140	38190	12	32793	
2289	0	33637	32162	38167	11	32600	
2290	0	33640	32154	38148	10	32600	
2291	0	33624	32154	38128	10	32868	
2292	0	33613	32146	38140	11	32652	
2293	0	33608	32148	38158	12	32753	
2294	0	33624	32172	38148	12	32796	
2295	0	33626	32196	38160	10	32532	
2296	0	33624	32230	38167	12	32704	
2297	0	33634	32239	38202	12	33017	
2298	0	33636	32260	38206	12	32854	
2299	0	33633	32276	38225	11	32612	
2300	0	33616	32256	38256	11	33050	
2301	0	33608	32221	38303	11	32850	
2302	0	33599	32208	38358	11	32810	
2303	0	33584	32201	38374	10	32855	
2304	0	33576	32220	38400	11	32263	
2305	0	33576	32248	38433	12	31988	
2306	0	33588	32260	38462	11	32600	
2307	0	33589	32276	38480	11	32502	
2308	0	33588	32300	38466	11	32616	
2309	0	33578	32288	38452	12	32476	
2310	0	33557	32287	38448	11	32257	
2311	0	33552	32256	38436	11	32745	
2312	0	33540	32226	38421	12	32710	
2313	0	33538	32210	38404	12	32829	
2314	0	33528	32216	38380	11	32708	
2315	0	33530	32224	38388	12	32574	
2316	0	33536	32247	38370	12	32660	
2317	0	33552	32277	38345	11	32591	
2318	0	33548	32305	38324	12	32540	
2319	0	33544	32318	38328	11	32650	
2320	0	33536	32326	38318	11	32598	
2321	0	33512	32286	38303	12	32812	
2322	0	33504	32254	38303	12	33037	
2323	0	33486	32220	38320	11	32711	
2324	0	33484	32197	38354	12	32884	
2325	0	33482	32208	38384	11	33021	
2326	0	33500	32221	38383	12	33076	
2327	0	33513	32240	38404	11	33176	
2328	0	33534	32232	38406	11	32938	
2329	0	33544	32240	38420	12	32801	
2330	0	33548	32241	38425	11	32508	
2331	0	33536	32244	38425	10	32536	
2332	0	33508	32244	38407	11	32404	
2333	0	33480	32244	38396	12	32468	
2334	0	33460	32252	38364	11	32544	
2335	0	33444	32263	38360	10	32359	
2336	0	33433	32295	38338	11	32581	
2337	0	33436	32320	38328	10	32500	
2338	0	33421	32335	38300	12	32677	
2339	0	33401	32353	38282	11	32658	
2340	0	33400	32370	38268	11	32944	
2341	0	33390	32352	38254	11	32736	
2342	0	33380	32343	38268	12	32720	
2343	0	33360	32298	38256	11	32503	
2344	0	33352	32268	38284	12	32670	
2345	0	33356	32248	38296	10	32459	
2346	0	33384	32232	38320	11	32050	
2347	0	33410	32229	38354	10	32654	
2348	0	33456	32232	38380	11	32629	
2349	0	33474	32260	38424	9	32801	
2350	0	33490	32272	38420	10	32720	
2351	0	33504	32295	38440	11	32840	
2352	0	33516	32300	38432	11	32719	
2353	0	33518	32284	38406	11	33060	
2354	0	33500	32277	38422	11	32876	
2355	0	33464	32256	38432	12	32660	
2356	0	33444	32244	38448	12	32801	
2357	0	33436	32256	38456	12	32508	
2358	0	33428	32260	38434	13	33043	
2359	0	33422	32263	38428	12	32698	
2360	0	33404	32293	38385	12	32712	
2361	0	33378	32310	38352	11	32614	
2362	0	33368	32328	38319	12	32666	
2363	0	33344	32348	38288	11	32474	
2364	0	33316	32355	38270	13	32538	
2365	0	33312	32348	38250	12	32328	
2366	0	33296	32307	38224	12	32137	
2367	0	33286	32300	38216	11	32740	
2368	0	33280	32273	38216	12	32676	
2369	0	33296	32279	38260	11	32822	
2370	0	33324	32255	38293	11	32664	
2371	0	33352	32252	38324	11	32672	
2372	0	33380	32272	38357	11	32524	
2373	0	33416	32276	38377	11	32298	
2374	0	33440	32284	38394	11	32737	
2375	0	33446	32280	38432	12	32519	
2376	0	33460	32260	38438	12	32582	
2377	0	33452	32247	38458	12	32457	
2378	0	33444	32206	38466	11	32252	
2379	0	33444	32186	38481	11	32805	
2380	0	33448	32158	38488	12	32996	
2381	0	33450	32159	38479	12	33091	
2382	0	33450	32145	38504	11	32810	
2383	0	33460	32136	38476	12	32894	
2384	0	33466	32117	38485	11	32906	
2385	0	33484	32074	38484	12	32661	
2386	0	33496	32026	38496	11	32832	
2387	0	33528	31982	38484	11	32765	
2388	0	33560	31956	38480	12	32489	
2389	0	33566	31970	38464	11	32472	
2390	0	33592	31970	38444	10	32634	
2391	0	33624	31969	38416	11	32493	
2392	0	33652	31972	38407	12	32644	
2393	0	33640	31968	38407	12	32400	
2394	0	33624	31952	38382	12	32382	
2395	0	33612	31942	38392	11	32667	
2396	0	33592	31935	38353	11	32414	
2397	0	33578	31945	38328	11	32741	
2398	0	33576	31940	38316	11	32687	
2399	0	33558	31968	38316	11	32881	
2400	0	33528	31972	38298	11	32996	
2401	0	33506	31960	38277	12	32663	
2402	0	33494	31944	38286	12	32274	
2403	0	33468	31926	38248	12	32821	
2404	0	33456	31932	38251	12	32669	
2405	0	33436	31944	38244	11	32873	
2406	0	33416	31977	38256	11	32828	
2407	0	33396	31996	38265	11	32436	
2408	0	33386	31988	38263	11	32932	
2409	0	33384	31991	38288	11	32614	
2410	0	33372	31996	38330	12	32587	
2411	0	33382	31996	38379	11	32550	
2412	0	33386	32017	38416	11	32784	
2413	0	33380	32032	38441	11	32722	
2414	0	33374	32038	38476	11	32496	
2415	0	33352	32039	38518	11	32390	
2416	0	33344	32056	38560	12	32720	
2417	0	33338	32084	38618	10	32736	
2418	0	33340	32082	38636	11	32908	
2419	0	33336	32108	38649	10	32619	
2420	0	33320	32128	38670	11	32600	
2421	0	33304	32116	38668	13	32850	
2422	0	33280	32128	38677	12	32748	
2423	0	33246	32113	38655	12	32857	
2424	0	33240	32112	38628	11	32658	
2425	0	33228	32132	38600	11	32670	
2426	0	33212	32149	38570	10	32444	
2427	0	33212	32156	38571	11	32364	
2428	0	33216	32147	38568	12	32753	
2429	0	33220	32128	38560	11	32633	
2430	0	33218	32124	38568	9	32740	
2431	0	33224	32119	38580	11	32598	
2432	0	33232	32106	38591	13	32340	
2433	0	33258	32109	38612	11	32810	
2434	0	33260	32106	38632	12	32568	
2435	0	33272	32104	38644	11	32630	
2436	0	33260	32098	38657	11	32628	
2437	0	33260	32079	38670	12	32268	
2438	0	33264	32076	38663	12	32937	
2439	0	33244	32073	38648	11	32456	
2440	0	33230	32073	38620	12	32789	
2441	0	33208	32062	38609	11	32377	
2442	0	33188	32066	38568	12	33076	
2443	0	33164	32088	38526	12	32984	
2444	0	33156	32102	38492	10	32726	
2445	0	33156	32098	38433	12	32607	
2446	0	33138	32069	38384	11	32788	
2447	0	33126	32056	38321	12	32514	
2448	0	33112	32023	38263	12	32638	
2449	0	33113	32007	38228	11	32606	
2450	0	33108	31984	38166	13	32719	
2451	0	33100	31988	38108	11	32808	
2452	0	33100	31984	38049	11	32612	
2453	0	33086	31980	38020	11	32736	
2454	0	33068	31966	38005	11	32532	
2455	0	33066	31950	37991	11	32774	
2456	0	33052	31930	38008	11	32813	
2457	0	33058	31926	38032	11	32621	
2458	0	33054	31916	38043	12	32580	
2459	0	33052	31912	38064	11	32824	
2460	0	33072	31909	38087	11	32656	
2461	0	33076	31917	38104	11	32758	
2462	0	33080	31929	38156	12	32556	
2463	0	33072	31934	38200	11	32726	
2464	0	33056	31918	38244	12	32732	
2465	0	33044	31893	38298	12	32356	
2466	0	33036	31888	38376	11	32623	
2467	0	33025	31868	38425	11	32694	
2468	0	33024	31871	38456	11	32551	
2469	0	33044	31864	38510	10	32463	
2470	0	33028	31848	38551	11	32952	
2471	0	33036	31838	38600	12	33032	
2472	0	33024	31805	38636	12	33096	
2473	0	33000	31785	38642	10	32954	
2474	0	32988	31769	38642	12	32908	
2475	0	32994	31740	38624	11	33052	
2476	0	32982	31744	38608	11	32832	
2477	0	32980	31729	38587	12	32872	
2478	0	32984	31709	38572	11	32632	
2479	0	32970	31678	38524	13	32636	
2480	0	32965	31665	38512	11	32475	
2481	0	32964	31650	38497	12	32534	
2482	0	32984	31660	38482	11	32424	
2483	0	32976	31680	38464	10	32625	
2484	0	32996	31688	38448	12	32676	
2485	0	32988	31726	38407	11	32460	
2486	0	32972	31740	38394	10	32344	
2487	0	32964	31751	38370	12	32824	
2488	0	32954	31766	38353	13	32572	
2489	0	32940	31798	38313	12	32582	
2490	0	32906	31825	38284	12	32888	
2491	0	32916	31845	38260	12	32332	
2492	0	32896	31857	38244	12	32812	
2493	0	32876	31894	38232	11	32660	
2494	0	32845	31904	38222	11	32502	
2495	0	32838	31908	38220	11	32432	
2496	0	32816	31917	38196	11	32201	
2497	0	32792	31926	38196	11	32861	
2498	0	32781	31932	38204	12	32575	
2499	0	32762	31944	38221	11	32434	
2500	0	32764	31945	38244	11	33069	
2501	0	32762	31945	38272	11	32743	
2502	0	32766	31949	38276	12	32644	
2503	0	32756	31960	38293	11	32478	
2504	0	32740	31952	38298	13	32353	
2505	0	32729	31951	38330	11	32430	
2506	0	32708	31940	38375	11	32396	
2507	0	32708	31930	38387	11	32750	
2508	0	32720	31940	38384	11	32900	
2509	0	32708	31944	38388	11	32612	
2510	0	32704	31956	38404	11	32996	
2511	0	32692	31964	38413	13	33310	
2512	0	32680	31972	38419	12	32980	
2513	0	32680	31980	38384	12	32988	
2514	0	32674	31956	38363	11	32583	
2515	0	32654	31952	38363	12	32488	
2516	0	32656	31940	38348	12	32256	
2517	0	32648	31938	38320	10	32180	
2518	0	32632	31944	38279	11	32534	
2519	0	32638	31958	38246	12	32416	
2520	0	32636	31977	38223	12	32700	
2521	0	32640	31968	38213	12	33081	
2522	0	32632	31985	38198	12	32983	
2523	0	32632	31980	38176	11	33042	
2524	0	32626	31956	38150	10	33057	
2525	0	32624	31962	38132	11	32949	
2526	0	32604	31954	38120	12	33009	
2527	0	32600	31948	38123	13	32611	
2528	0	32592	31948	38104	10	32706	
2529	0	32584	31957	38120	11	32701	
2530	0	32584	31956	38154	11	32381	
2531	0	32588	31958	38167	12	32382	
2532	0	32588	31976	38196	11	32632	
2533	0	32594	31985	38217	10	32484	
2534	0	32596	31990	38234	11	32600	
2535	0	32592	31996	38240	11	32494	
2536	0	32584	31990	38272	12	32526	
2537	0	32588	31992	38304	11	32656	
2538	0	32572	31989	38342	12	32754	
2539	0	32557	31985	38354	12	32560	
2540	0	32562	32002	38376	11	32625	
2541	0	32568	32004	38404	12	32820	
2542	0	32553	32006	38428	12	32644	
2543	0	32552	32004	38440	11	32681	
2544	0	32542	32000	38484	11	32772	
2545	0	32529	31995	38508	11	32970	
2546	0	32529	32007	38527	12	33016	
2547	0	32532	31998	38540	11	32830	
2548	0	32524	31996	38532	12	32910	
2549	0	32524	31995	38548	11	32768	
2550	0	32516	32001	38550	11	32552	
2551	0	32516	32004	38558	12	32782	
2552	0	32520	32001	38563	11	32449	
2553	0	32524	31988	38561	12	32612	
2554	0	32520	31986	38564	12	32443	
2555	0	32520	31972	38552	11	32700	
2556	0	32522	31973	38572	10	32587	
2557	0	32529	31967	38576	12	32936	
2558	0	32552	31968	38582	11	32824	
2559	0	32568	31968	38588	10	32562	
2560	0	32568	31970	38593	12	32726	
2561	0	32590	31963	38575	12	32762	
2562	0	32608	31973	38568	11	32744	
2563	0	36276	32564	38868	11	32700	
2564	0	39540	32337	38588	11	32488	
2565	0	38212	31852	36820	11	32670	
2566	0	35598	31834	35805	11	32836	
2567	0	34112	31894	35900	12	32716	
2568	0	33440	31890	36127	10	33052	
2569	0	33256	32100	36704	11	32865	
2570	0	32938	31922	37137	12	32558	
2571	0	32638	31956	37783	12	32794	
2572	0	32532	32016	38140	11	32888	
2573	0	32868	32228	38056	11	32596	
2574	0	33016	32356	38240	12	32592	
2575	0	32824	32129	38396	12	32546	
2576	0	32584	32118	38453	10	32649	
2577	0	32437	32135	38354	12	32594	
2578	0	32308	31988	38313	12	32755	
2579	0	32296	31978	38176	11	32588	
2580	0	32406	32014	38300	11	32362	
2581	0	32380	31944	38350	12	32696	
2582	0	32390	32002	38436	12	32608	
2583	0	32347	31944	38460	12	32775	
2584	0	32360	32094	38458	11	32529	
2585	0	32354	32226	38500	10	32408	
2586	0	32360	32052	38506	11	32860	
2587	0	32428	32036	38584	11	32634	
2588	0	32432	32083	38615	13	32738	
2589	0	32430	32124	38565	13	32705	
2590	0	32472	32273	38484	12	32496	
2591	0	32604	32492	38452	12	32950	
2592	0	32698	32401	38495	13	32754	
2593	0	32697	32256	38588	10	32716	
2594	0	32622	31942	38682	12	32552	
2595	0	32546	31642	38745	11	32585	
2596	0	32530	31949	38567	11	32632	
2597	0	32552	32292	38445	13	32894	
2598	0	32566	32482	38364	10	32917	
2599	0	32625	32576	38352	12	32724	
2600	0	32688	32527	38452	10	32820	
2601	0	32760	32402	38544	11	32678	
2602	0	32876	32263	38616	11	32912	
2603	0	33204	32164	38668	11	32569	
2604	0	34068	32079	38632	12	32796	
2605	0	34240	32026	38472	11	32755	
2606	0	33551	32006	38384	11	32550	
2607	0	32660	32056	38447	12	32288	
2608	0	31828	32184	38584	10	32668	
2609	0	31601	32308	38696	11	32609	
2610	0	31704	32407	38748	12	32752	
2611	0	32008	32420	38708	12	32600	
2612	0	32300	32398	38640	9	32671	
2613	0	32484	32335	38590	12	32751	
2614	0	32620	32288	38544	12	32534	
2615	0	32710	32274	38500	10	32616	
2616	0	32758	32236	38498	13	32502	
2617	0	32798	32228	38524	10	32708	
2618	0	32828	32228	38535	13	32768	
2619	0	32863	32228	38558	11	32448	
2620	0	32892	32248	38572	11	32548	
2621	0	32914	32272	38572	12	32602	
2622	0	32952	32291	38532	12	32496	
2623	0	32972	32322	38532	12	32813	
2624	0	33009	32321	38529	11	32903	
2625	0	33094	32325	38526	11	32833	
2626	0	33269	32304	38516	12	33139	
2627	0	33960	32245	38449	12	33181	
2628	0	34936	32144	38161	11	33116	
2629	0	34460	32112	38037	13	33072	
2630	0	33428	32148	38204	11	32814	
2631	0	32648	32277	38545	12	32735	
2632	0	32176	32448	38820	11	32472	
2633	0	32022	32552	38941	10	32344	
2634	0	32113	32582	38940	13	32292	
2635	0	32328	32563	38828	12	32096	
2636	0	32560	32513	38644	11	32575	
2637	0	32716	32463	38500	13	32540	
2638	0	32810	32432	38416	12	32668	
2639	0	32872	32392	38362	13	32420	
2640	0	32928	32388	38372	11	32335	
2641	0	32964	32376	38375	12	32924	
2642	0	33008	32362	38380	11	32775	
2643	0	33054	32368	38388	12	32710	
2644	0	33089	32390	38378	11	32438	
2645	0	33120	32390	38358	11	32352	
2646	0	33144	32408	38335	12	32828	
2647	0	33177	32414	38302	11	33132	
2648	0	33209	32420	38303	11	32917	
2649	0	33248	32429	38296	11	32490	
2650	0	33258	32452	38316	11	32562	
2651	0	33272	32460	38297	11	32734	
2652	0	33314	32464	38318	12	32789	
2653	0	33358	32468	38351	12	32724	
2654	0	33560	32452	38328	13	32279	
2655	0	34297	32369	38272	11	32071	
2656	0	35018	32288	38052	13	32732	
2657	0	34444	32269	37992	10	32710	
2658	0	33546	32321	38191	11	32920	
2659	0	32968	32448	38484	11	32700	
2660	0	32650	32564	38697	11	32350	
2661	0	32649	32630	38764	12	32852	
2662	0	32756	32650	38728	11	32722	
2663	0	32870	32612	38643	11	32814	
2664	0	32980	32570	38552	11	32748	
2665	0	33082	32544	38469	12	32744	
2666	0	33152	32501	38396	11	32738	
2667	0	33224	32483	38353	11	32584	
2668	0	33296	32454	38384	11	32711	
2669	0	33366	32438	38432	11	32748	
2670	0	33417	32430	38495	11	32536	
2671	0	33482	32448	38553	11	32634	
2672	0	33532	32449	38554	11	32590	
2673	0	33560	32465	38570	12	32132	
2674	0	33590	32469	38572	11	32727	
2675	0	33616	32470	38528	11	32600	
2676	0	33642	32494	38512	11	32752	
2677	0	33672	32519	38500	10	32782	
2678	0	33684	32548	38496	12	32548	
2679	0	33708	32570	38502	11	32185	
2680	0	33732	32591	38492	12	32756	
2681	0	33740	32621	38512	12	32464	
2682	0	33721	32656	38540	12	32237	
2683	0	33717	32674	38566	12	32756	
2684	0	33712	32701	38586	12	32416	
2685	0	33704	32750	38592	12	32174	
2686	0	33708	32764	38596	11	32974	
2687	0	33708	32785	38604	11	32988	
2688	0	33744	32784	38600	11	33062	
2689	0	33764	32801	38596	10	32836	
2690	0	33788	32818	38594	11	32494	
2691	0	33798	32812	38576	12	33076	
2692	0	33801	32827	38572	13	32969	
2693	0	33808	32846	38553	11	33152	
2694	0	33818	32874	38487	11	32552	
2695	0	33817	32871	38460	10	32557	
2696	0	33804	32894	38436	12	32636	
2697	0	33799	32918	38452	12	32596	
2698	0	33796	32940	38458	12	32692	
2699	0	33796	32942	38468	12	32608	
2700	0	33808	32932	38520	13	32834	
2701	0	34084	32890	39956	11	32849	
2702	0	33810	32744	39332	13	32632	
2703	0	33572	32820	38740	10	32688	
2704	0	33420	32902	38512	13	32528	
2705	0	33420	32868	38156	11	32639	
2706	0	33636	32818	37904	12	32596	
2707	0	33756	32816	37832	11	32524	
2708	0	33842	32808	37948	11	32709	
2709	0	33888	32812	38120	10	32531	
2710	0	33940	32850	38266	12	32532	
2711	0	34004	32870	38382	11	32620	
2712	0	34050	32863	38469	11	32339	
2713	0	34020	32872	38494	11	32812	
2714	0	33960	32854	38514	11	32725	
2715	0	33882	32854	38504	10	32637	
2716	0	33815	32862	38442	11	32463	
2717	0	33756	32858	38413	12	32662	
2718	0	33732	32868	38396	9	32600	
2719	0	33736	32849	38402	13	32688	
2720	0	33740	32860	38396	10	32712	
2721	0	33752	32859	38417	11	32484	
2722	0	33782	32865	38446	11	32205	
2723	0	33824	32862	38472	11	32824	
2724	0	33845	32868	38512	11	32624	
2725	0	33912	32784	38728	11	32797	
2726	0	33972	32696	38890	11	32796	
2727	0	33905	32740	38720	12	32933	
2728	0	33864	32884	38588	11	33167	
2729	0	33864	32960	38492	11	33100	
2730	0	33908	33028	38383	12	32439	
2731	0	33972	33064	38356	12	32688	
2732	0	34030	33046	38394	12	32472	
2733	0	34056	33022	38492	12	32576	
2734	0	34084	32992	38581	11	32600	
2735	0	34092	32980	38644	10	32618	
2736	0	34072	32996	38635	11	32592	
2737	0	34052	33018	38607	11	32404	
2738	0	34020	33068	38552	10	32189	
2739	0	34000	33081	38490	11	32817	
2740	0	33980	33081	38444	11	32816	
2741	0	33964	33078	38428	11	32827	
2742	0	33924	33078	38442	12	32673	
2743	0	33904	33071	38444	10	32447	
2744	0	33900	33061	38462	13	32731	
2745	0	33884	33076	38484	11	32788	
2746	0	33888	33063	38491	11	32794	
2747	0	33870	33060	38472	13	32616	
2748	0	33868	33061	38458	12	32808	
2749	0	33856	33061	38442	12	32633	
2750	0	33848	33058	38456	11	32588	
2751	0	33840	33071	38436	11	32432	
2752	0	33841	33088	38440	12	32220	
2753	0	33868	33081	38420	10	32540	
2754	0	33868	33070	38416	11	32713	
2755	0	33856	33076	38404	10	32724	
2756	0	33860	33068	38402	10	32552	
2757	0	33866	33044	38424	10	32637	
2758	0	33848	32869	38521	13	32508	
2759	0	33824	32689	38626	11	32593	
2760	0	33812	32810	38572	12	32734	
2761	0	33832	33090	38452	10	32636	
2762	0	33892	33218	38404	13	32837	
2763	0	33927	33251	38376	12	32948	
2764	0	33944	33188	38402	11	32902	
2765	0	33936	33108	38474	11	33085	
2766	0	33928	33100	38512	13	32989	
2767	0	33934	33158	38499	13	32912	
2768	0	33936	33198	38488	11	33202	
2769	0	33924	33204	38456	12	32612	
2770	0	33916	33214	38444	12	32488	
2771	0	33904	33196	38423	11	32289	
2772	0	33880	33198	38404	11	32448	
2773	0	33852	33168	38388	12	32364	
2774	0	33844	33132	38420	10	32562	
2775	0	33828	33073	38456	11	32912	
2776	0	33810	33052	38490	10	32772	
2777	0	33776	33036	38540	13	32884	
2778	0	33732	33048	38476	11	32715	
2779	0	33798	33089	38404	12	32731	
2780	0	33920	33156	38381	11	32625	
2781	0	33966	33182	38394	11	32900	
2782	0	33968	33094	38416	12	32808	
2783	0	33944	33004	38478	11	32628	
2784	0	33948	32958	38528	11	32706	
2785	0	33914	32952	38540	11	32640	
2786	0	33872	32972	38532	12	32757	
2787	0	33868	33007	38475	11	32783	
2788	0	33896	33040	38421	12	32737	
2789	0	33906	33061	38428	11	32624	
2790	0	33909	33060	38424	12	32775	
2791	0	33902	33076	38440	11	32560	
2792	0	33898	33082	38476	12	32702	
2793	0	33912	33046	38502	10	32610	
2794	0	33901	33028	38510	12	32564	
2795	0	33908	33020	38506	11	32444	
2796	0	33920	33031	38516	11	32656	
2797	0	33920	33016	38516	12	32618	
2798	0	33916	33031	38494	11	32408	
2799	0	33920	33024	38513	12	33064	
2800	0	33910	33030	38516	10	32860	
2801	0	33920	33030	38528	11	32850	
2802	0	33940	33040	38534	11	32876	
2803	0	33944	33032	38548	11	32672	
2804	0	33948	33049	38565	11	32917	
2805	0	33956	33039	38556	11	32544	
2806	0	33972	33044	38562	11	32594	
2807	0	33968	33049	38584	12	32672	
2808	0	33984	33045	38568	10	32512	
2809	0	33972	33031	38580	12	32564	
2810	0	33980	33041	38568	10	32548	
2811	0	33980	33050	38558	12	32747	
2812	0	33972	33070	38554	11	32801	
2813	0	33956	33055	38559	13	32560	
2814	0	33964	33051	38550	12	32735	
2815	0	33957	33052	38532	11	32884	
2816	0	33951	33052	38501	13	32760	
2817	0	33960	33044	38486	11	32449	
2818	0	33960	33038	38476	12	32920	
2819	0	33960	33031	38464	12	32732	
2820	0	33960	33025	38474	11	32744	
2821	0	33950	33020	38492	11	32800	
2822	0	33934	33028	38510	12	32580	
2823	0	33940	33016	38498	10	32590	
2824	0	33948	33004	38508	11	32484	
2825	0	33956	32986	38484	11	32542	
2826	0	33948	32996	38476	10	32750	
2827	0	33940	32988	38486	10	32544	
2828	0	33940	32985	38468	11	32633	
2829	0	33941	32989	38465	11	32599	
2830	0	33960	32965	38462	12	32536	
2831	0	33960	32967	38457	11	32556	
2832	0	33948	32958	38454	12	32656	
2833	0	33946	32960	38445	11	32470	
2834	0	33929	32956	38440	13	32608	
2835	0	33932	32941	38436	11	32620	
2836	0	33928	32940	38438	9	32700	
2837	0	33940	32934	38404	10	32838	
2838	0	33936	32921	38368	12	33188	
2839	0	33925	32920	38364	11	32953	
2840	0	33912	32916	38373	14	32917	
2841	0	33904	32917	38385	12	32846	
2842	0	33888	32942	38432	11	32646	
2843	0	33862	32948	38467	13	32409	
2844	0	33840	32940	38502	11	32784	
2845	0	33804	32970	38533	11	32628	
2846	0	33776	32988	38568	13	32630	
2847	0	33752	33012	38598	11	32524	
2848	0	33728	33020	38615	12	32652	
2849	0	33702	33044	38638	11	32391	
2850	0	33686	33044	38674	12	32306	
2851	0	33656	33078	38712	11	32628	
2852	0	33614	33117	38777	12	32643	
2853	0	33588	33140	38856	12	32738	
2854	0	33658	33072	38765	12	32666	
2855	0	33776	32988	38610	11	32718	
2856	0	33834	32922	38444	10	32506	
2857	0	33828	32880	38378	11	32885	
2858	0	33784	32860	38364	11	32868	
2859	0	33720	32848	38407	12	32782	
2860	0	33692	32827	38448	11	32846	
2861	0	33690	32832	38438	11	32719	
2862	0	33688	32824	38467	11	32354	
2863	0	33696	32800	38502	11	33045	
2864	0	33704	32791	38504	11	32824	
2865	0	33716	32775	38466	11	32566	
2866	0	33736	32775	38459	11	32562	
2867	0	33728	32775	38452	11	32452	
2868	0	33720	32767	38460	12	32596	
2869	0	33736	32760	38450	10	32437	
2870	0	33744	32752	38456	12	32706	
2871	0	33744	32760	38456	11	32702	
2872	0	33772	32756	38468	11	32548	
2873	0	33780	32757	38456	11	32380	
2874	0	33776	32744	38468	12	32917	
2875	0	33775	32750	38492	10	32540	
2876	0	33782	32732	38489	11	32396	
2877	0	33760	32730	38484	11	32992	
2878	0	33764	32736	38496	12	32624	
2879	0	33780	32736	38490	11	32753	
2880	0	33804	32750	38486	12	32564	
2881	0	33804	32764	38472	11	32796	
2882	0	33784	32775	38476	11	32678	
2883	0	33760	32793	38484	12	32767	
2884	0	33744	32800	38499	12	32791	
2885	0	33728	32812	38492	11	32482	
2886	0	33728	32813	38473	11	32120	
2887	0	33766	32828	38448	11	32948	
2888	0	33792	32851	38436	11	32606	
2889	0	33818	32820	38423	10	32668	
2890	0	33788	32844	38439	12	32733	
2891	0	33744	32851	38440	12	32520	
2892	0	33724	32858	38473	12	32698	
2893	0	33760	33032	38872	11	32682	
2894	0	33656	33031	38740	13	32588	
2895	0	33516	32855	38431	11	32344	
2896	0	33580	32693	38441	11	32522	
2897	0	33752	32700	38592	11	32528	
2898	0	33940	32749	38548	12	32602	
2899	0	34040	32757	38488	12	32692	
2900	0	34016	32724	38464	13	32892	
2901	0	33954	32656	38369	12	32964	
2902	0	33950	32572	38306	12	32902	
2903	0	33961	32576	38318	11	32960	
2904	0	34000	32579	38280	12	32964	
2905	0	34020	32599	38232	12	33280	
2906	0	34028	32612	38180	11	32912	
2907	0	34008	32616	38161	12	32684	
2908	0	34012	32632	38130	10	32636	
2909	0	34017	32635	38128	11	32470	
2910	0	34032	32640	38137	11	32670	
2911	0	33996	32641	38108	11	32494	
2912	0	33976	32624	38105	12	32639	
2913	0	33956	32628	38096	11	32424	
2914	0	33964	32620	38065	11	32596	
2915	0	33930	32609	38052	12	32528	
2916	0	33910	32600	38063	11	32300	
2917	0	33892	32610	38080	11	32661	
2918	0	33890	32596	38130	10	32284	
2919	0	33948	32580	38120	11	32852	
2920	0	33986	32565	38112	13	32710	
2921	0	34030	32559	38112	12	32804	
2922	0	34040	32580	38135	10	32680	
2923	0	34064	32564	38162	11	32822	
2924	0	34060	32562	38224	11	32632	
2925	0	34074	32563	38245	11	32634	
2926	0	34076	32565	38238	12	32589	
2927	0	34084	32564	38268	11	32276	
2928	0	34062	32564	38300	13	32901	
2929	0	34048	32580	38312	11	32868	
2930	0	34024	32584	38348	10	32836	
2931	0	34046	32596	38278	11	32808	
2932	0	34138	32610	38116	10	32956	
2933	0	34184	32606	38060	12	32552	
2934	0	34228	32580	38106	12	32176	
2935	0	34264	32577	38152	12	32765	
2936	0	34254	32576	38191	12	32578	
2937	0	34216	32585	38241	11	32600	
2938	0	34168	32604	38272	12	32731	
2939	0	34120	32578	38286	11	32584	
2940	0	34100	32604	38282	11	32634	
2941	0	34104	32612	38292	10	32974	
2942	0	34112	32622	38287	12	32849	
2943	0	34106	32624	38272	11	32876	
2944	0	34104	32640	38278	12	32660	
2945	0	34082	32660	38312	11	32832	
2946	0	34076	32676	38333	11	32680	
2947	0	34085	32680	38351	11	32632	
2948	0	34108	32690	38364	12	32775	
2949	0	34096	32686	38360	13	32564	
2950	0	34090	32711	38369	12	32606	
2951	0	34078	32714	38383	12	32564	
2952	0	34105	32713	38406	11	32740	
2953	0	34096	32712	38418	12	32518	
2954	0	34114	32710	38444	12	32236	
2955	0	34129	32696	38460	13	32706	
2956	0	34138	32704	38436	11	32598	
2957	0	34140	32688	38465	12	32740	
2958	0	34140	32673	38440	11	32504	
2959	0	34112	32692	38440	12	32686	
2960	0	34124	32684	38440	12	32782	
2961	0	34113	32696	38428	11	32600	
2962	0	34104	32687	38438	13	32775	
2963	0	34112	32688	38456	12	32585	
2964	0	34108	32676	38433	11	32289	
2965	0	34128	32689	38429	12	32871	
2966	0	34122	32679	38442	12	32772	
2967	0	34104	32685	38460	12	32860	
2968	0	34080	32690	38466	11	32734	
2969	0	34048	32696	38478	11	33004	
2970	0	34016	32704	38503	10	32968	
2971	0	33980	32717	38508	13	32526	
2972	0	33960	32717	38492	12	32620	
2973	0	33924	32721	38492	11	32492	
2974	0	33897	32708	38493	11	32599	
2975	0	33888	32708	38520	10	32824	
2976	0	33860	32708	38528	11	32594	
2977	0	33836	32707	38558	11	32765	
2978	0	33824	32677	38556	11	32544	
2979	0	33808	32674	38540	12	32268	
2980	0	33784	32672	38533	11	32828	
2981	0	33792	32640	38474	11	32721	
2982	0	33780	32622	38440	10	32698	
2983	0	33794	32573	38447	11	32748	
2984	0	33781	32565	38445	11	32738	
2985	0	33776	32552	38460	10	32498	
2986	0	33768	32524	38420	11	32722	
2987	0	33748	32532	38404	12	32536	
2988	0	33738	32516	38392	11	32875	
2989	0	33708	32532	38380	12	32863	
2990	0	33696	32512	38388	11	32940	
2991	0	33684	32532	38369	10	32846	
2992	0	33684	32546	38342	11	32732	
2993	0	33668	32552	38348	10	32834	
2994	0	33658	32557	38362	12	32584	
2995	0	33665	32564	38369	13	32668	
2996	0	33676	32558	38346	12	32678	
2997	0	33690	32568	38352	10	32674	
2998	0	33700	32552	38338	11	32856	
2999	0	33720	32545	38332	11	32792	
3000	0	33732	32556	38341	12	32804	
3001	0	33734	32549	38356	10	32456	
3002	0	33749	32545	38367	12	32576	
3003	0	33762	32540	38374	12	32633	
3004	0	33760	32537	38364	10	32406	
3005	0	33754	32432	38346	12	32348	
3006	0	33688	31324	38116	11	32708	
3007	0	33868	31780	38248	12	32720	
3008	0	33792	32472	38388	10	32832	
3009	0	33658	32760	38362	12	32808	
3010	0	33632	32812	38304	12	32867	
3011	0	33738	32748	38353	11	32590	
3012	0	33772	32411	38324	12	32748	
3013	0	33856	32519	38407	11	32544	
3014	0	33812	32544	38426	12	32676	
3015	0	33816	32516	38364	11	32454	
3016	0	33868	32775	38458	11	32660	
3017	0	33876	32698	38448	11	32834	
3018	0	33828	32612	38402	12	32528	
3019	0	33784	32620	38398	11	32730	
3020	0	33825	32676	38360	12	32622	
3021	0	33809	32858	38372	12	32760	
3022	0	33717	32972	38393	11	32732	
3023	0	33660	32588	38296	11	32676	
3024	0	33616	32353	38271	11	32602	
3025	0	33600	32498	38262	11	32529	
3026	0	33600	32608	38232	12	32506	
3027	0	33596	32754	38285	11	32780	
3028	0	33562	32594	38262	12	32796	
3029	0	33588	32472	38264	10	32933	
3030	0	33592	32488	38287	13	32802	
3031	0	33568	32439	38300	11	32905	
3032	0	33584	32398	38262	10	32849	
3033	0	33644	32571	38294	10	33030	
3034	0	33673	32708	38366	12	33070	
3035	0	33684	32684	38407	11	32306	
3036	0	33676	32650	38444	11	32464	
3037	0	33680	32706	38476	10	32116	
3038	0	33672	32706	38492	11	32522	
3039	0	33674	32700	38505	12	32046	
3040	0	33660	32718	38532	11	32698	
3041	0	33660	32708	38537	9	32904	
3042	0	33629	32657	38504	11	32878	
3043	0	33598	32601	38500	12	32680	
3044	0	33604	32580	38474	11	32802	
3045	0	33602	32561	38460	11	32618	
3046	0	33613	32565	38460	12	32903	
3047	0	33624	32566	38480	11	32770	
3048	0	33624	32588	38490	13	32928	
3049	0	33648	32609	38508	12	32685	
3050	0	33676	32617	38532	12	32660	
3051	0	33705	32642	38568	11	32400	
3052	0	33720	32632	38604	11	32559	
3053	0	33736	32638	38622	11	32352	
3054	0	33750	32644	38640	11	32538	
3055	0	33749	32639	38662	12	32430	
3056	0	33757	32626	38662	11	32452	
3057	0	33768	32630	38636	12	32888	
3058	0	33756	32636	38622	10	32845	
3059	0	33741	32631	38609	11	32982	
3060	0	33728	32632	38580	12	32742	
3061	0	33732	32609	38582	11	32984	
3062	0	33738	32594	38588	13	32721	
3063	0	33736	32590	38560	11	32372	
3064	0	33732	32574	38537	11	32592	
3065	0	33728	32580	38516	10	32633	
3066	0	33728	32566	38512	10	32714	
3067	0	33722	32569	38510	11	32519	
3068	0	33728	32548	38480	11	32700	
3069	0	33746	32544	38492	12	32613	
3070	0	33740	32530	38471	12	32704	
3071	0	33744	32514	38461	11	32714	
3072	0	33744	32512	38452	10	32538	
3073	0	33740	32519	38430	11	32612	
3074	0	33728	32516	38407	12	32786	
3075	0	33738	32518	38428	11	32612	
3076	0	33736	32519	38407	11	32725	
3077	0	33742	32516	38407	13	32653	
3078	0	33750	32516	38396	13	32690	
3079	0	33736	32519	38385	11	33010	
3080	0	33752	32518	38404	11	32862	
3081	0	33745	32524	38396	11	32882	
3082	0	33760	32527	38404	11	32678	
3083	0	33776	32516	38416	11	32772	
3084	0	33792	32529	38388	10	32804	
3085	0	33792	32524	38407	11	32689	
3086	0	33808	32513	38438	11	32770	
3087	0	33826	32500	38453	10	32718	
3088	0	33829	32508	38447	11	32682	
3089	0	33840	32514	38423	12	32804	
3090	0	33844	32517	38407	10	32535	
3091	0	33840	32512	38400	12	32588	
3092	0	33844	32519	38407	10	32525	
3093	0	33840	32513	38394	11	32670	
3094	0	33824	32512	38396	11	32675	
3095	0	33820	32504	38389	11	32560	
3096	0	33820	32512	38388	10	32732	
3097	0	33820	32501	38399	11	32480	
3098	0	33826	32510	38407	12	32667	
3099	0	33808	32503	38368	12	32849	
3100	0	33820	32488	38373	10	32842	
3101	0	33824	32473	38360	11	32911	
3102	0	33821	32486	38356	12	32646	
3103	0	33828	32492	38350	11	32431	
3104	0	33816	32477	38388	11	32588	
3105	0	33816	32466	38380	11	32447	
3106	0	33813	32490	38380	11	32744	
3107	0	33825	32480	38402	11	32726	
3108	0	33824	32478	38384	11	32836	
3109	0	33840	32496	38384	11	32541	
3110	0	33824	32487	38405	11	32506	
3111	0	33817	32496	38413	12	32791	
3112	0	33828	32500	38422	10	32480	
3113	0	33832	32508	38420	12	32808	
3114	0	33844	32516	38407	10	32676	
3115	0	33840	32536	38390	13	32695	
3116	0	33864	32532	38390	11	32576	
3117	0	33876	32536	38428	11	32716	
3118	0	33889	32533	38458	12	32601	
3119	0	33900	32546	38448	11	32818	
3120	0	33904	32545	38450	11	32748	
3121	0	33904	32529	38436	11	32660	
3122	0	33908	32526	38427	11	32654	
3123	0	33913	32516	38424	11	32701	
3124	0	33896	32528	38430	11	32624	
3125	0	33888	32533	38428	11	32644	
3126	0	33890	32528	38456	11	32916	
3127	0	33884	32528	38432	11	32745	
3128	0	33892	32524	38446	12	32365	
3129	0	33892	32529	38460	11	32820	
3130	0	33880	32537	38479	11	32618	
3131	0	33864	32532	38456	13	32717	
3132	0	33856	32543	38476	11	32546	
3133	0	33844	32543	38472	12	32585	
3134	0	33824	32540	38490	12	32560	
3135	0	33826	32542	38482	11	32614	
3136	0	33826	32537	38464	12	32633	
3137	0	33828	32532	38468	11	32514	
3138	0	33836	32531	38452	12	32245	
3139	0	33850	32536	38479	11	32931	
3140	0	33848	32525	38441	11	32685	
3141	0	33853	32529	38428	11	32944	
3142	0	33860	32512	38407	11	32688	
3143	0	33876	32502	38407	11	32872	
3144	0	33888	32500	38407	11	32897	
3145	0	33884	32485	38384	12	32519	
3146	0	33888	32468	38396	12	32682	
3147	0	33877	32456	38380	12	32708	
3148	0	33872	32450	38392	12	32614	
3149	0	33860	32452	38407	13	32514	
3150	0	33868	32436	38407	12	32822	
3151	0	33860	32440	38404	11	32672	
3152	0	33834	32441	38422	12	32769	
3153	0	33848	32448	38428	11	32739	
3154	0	33831	32440	38422	11	32588	
3155	0	33840	32436	38416	12	32536	
3156	0	33812	32440	38452	11	32618	
3157	0	33766	32477	38593	12	32552	
3158	0	33168	32788	39967	12	32678	
3159	0	32882	32816	40575	11	32587	
3160	0	33356	32714	40068	11	32364	
3161	0	33806	32625	39409	11	33068	
3162	0	34052	32538	38728	10	32822	
3163	0	34118	32452	38233	11	32401	
3164	0	34085	32378	37822	11	32809	
3165	0	34088	32326	37452	12	32742	
3166	0	34017	32320	37400	11	32853	
3167	0	33878	32340	37477	12	32636	
3168	0	33848	32365	37524	11	32693	
3169	0	33816	32353	37620	11	32657	
3170	0	33832	32366	37727	11	32502	
3171	0	33844	32366	37856	12	32544	
3172	0	33856	32380	38004	13	32454	
3173	0	33864	32398	38146	10	32380	
3174	0	33868	32416	38276	11	32740	
3175	0	33816	32428	38392	11	32500	
3176	0	33668	32461	38580	13	32734	
3177	0	33562	32509	38688	10	32508	
3178	0	33504	32553	38799	11	32850	
3179	0	33612	32553	38775	11	32944	
3180	0	33808	32544	38644	11	32647	
3181	0	33948	32555	38468	10	32868	
3182	0	33986	32516	38364	13	33078	
3183	0	34072	32476	38202	11	32726	
3184	0	34104	32442	38131	12	32604	
3185	0	34090	32430	38092	11	32550	
3186	0	34084	32410	38048	10	32840	
3187	0	34098	32392	38036	12	32594	
3188	0	34100	32386	38036	12	32628	
3189	0	34108	32384	38070	11	32625	
3190	0	34104	32380	38120	11	32805	
3191	0	34112	32380	38152	10	32946	
3192	0	34072	32378	38210	12	32704	
3193	0	34052	32402	38268	10	32703	
3194	0	34068	32400	38292	12	32460	
3195	0	34066	32412	38334	12	32410	
3196	0	34092	32408	38356	12	32244	
3197	0	34090	32408	38340	12	32615	
3198	0	34088	32406	38356	12	32524	
3199	0	34089	32412	38376	10	32858	
3200	0	34097	32404	38382	11	32668	
3201	0	34124	32435	38380	12	32364	
3202	0	34144	32428	38380	11	33052	
3203	0	34155	32420	38364	12	33109	
3204	0	34176	32414	38332	12	33212	
3205	0	34184	32393	38290	10	32682	
3206	0	34228	32369	38238	12	32216	
3207	0	34240	32368	38231	9	32786	
3208	0	34198	32374	38261	11	32568	
3209	0	34172	32374	38285	13	32085	
3210	0	34164	32375	38304	11	32674	
3211	0	34144	32396	38330	10	32422	
3212	0	34114	32394	38296	13	32604	
3213	0	34088	32416	38296	11	32816	
3214	0	34072	32421	38292	12	32736	
3215	0	34044	32424	38270	11	32772	
3216	0	33996	32440	38292	12	32472	
3217	0	33962	32452	38266	12	32500	
3218	0	33992	32460	38240	11	32716	
3219	0	33974	32462	38228	11	32720	
3220	0	33952	32458	38216	11	32970	
3221	0	33960	32457	38200	11	32629	
3222	0	33962	32462	38198	11	32500	
3223	0	33974	32450	38180	12	32654	
3224	0	33988	32454	38172	11	32732	
3225	0	33988	32456	38188	9	32713	
3226	0	34004	32432	38168	12	32504	
3227	0	34012	32424	38164	11	32421	
3228	0	34016	32424	38160	12	32746	
3229	0	34016	32413	38138	12	32622	
3230	0	34048	32396	38150	12	32812	
3231	0	34078	32382	38126	11	32516	
3232	0	34080	32378	38122	12	32616	
3233	0	34064	32404	38164	11	32538	
3234	0	34072	32382	38182	12	32680	
3235	0	34101	32377	38186	11	32720	
3236	0	34104	32376	38196	11	32688	
3237	0	34128	32365	38216	11	32752	
3238	0	34128	32352	38236	12	32838	
3239	0	34138	32352	38256	11	32901	
3240	0	34142	32340	38257	13	33028	
3241	0	34160	32352	38252	10	32738	
3242	0	34137	32352	38240	11	32930	
3243	0	34124	32359	38262	11	32746	
3244	0	34098	32356	38286	11	32752	
3245	0	34096	32364	38314	11	32680	
3246	0	34098	32353	38310	11	32579	
3247	0	34090	32348	38321	12	32592	
3248	0	34118	32341	38348	12	32560	
3249	0	34136	32337	38372	12	32680	
3250	0	34128	32322	38375	12	32841	
3251	0	34146	32326	38388	10	32712	
3252	0	34176	32312	38393	11	32880	
3253	0	34200	32318	38376	12	32852	
3254	0	34212	32307	38384	12	32528	
3255	0	34226	32305	38396	12	32399	
3256	0	34244	32316	38396	10	32681	
3257	0	34236	32298	38394	13	32933	
3258	0	34248	32306	38390	11	32798	
3259	0	34248	32294	38399	12	32613	
3260	0	34244	32314	38424	11	32625	
3261	0	34233	32312	38445	11	32568	
3262	0	34228	32322	38433	12	32666	
3263	0	34216	32327	38417	11	32800	
3264	0	34212	32333	38423	12	32415	
3265	0	34226	32328	38421	11	32678	
3266	0	34224	32324	38396	11	32680	
3267	0	34240	32326	38407	12	32720	
3268	0	34248	32324	38389	12	32652	
3269	0	34238	32348	38400	11	32844	
3270	0	34234	32358	38429	11	32632	
3271	0	34240	32353	38426	12	32518	
3272	0	34228	32370	38441	11	32526	
3273	0	34236	32365	38432	11	32666	
3274	0	34224	32368	38424	12	32772	
3275	0	34214	32353	38420	11	32670	
3276	0	34210	32347	38407	12	32918	
3277	0	34201	32324	38426	10	32624	
3278	0	34188	32304	38420	11	32322	
3279	0	34208	32232	38406	12	32860	
3280	0	34216	32223	38392	13	32601	
3281	0	34218	32252	38348	11	32721	
3282	0	34227	32296	38367	11	32512	
3283	0	34226	32314	38396	12	32452	
3284	0	34192	32335	38424	12	32665	
3285	0	34172	32322	38422	9	32717	
3286	0	34126	32288	38416	11	32820	
3287	0	34068	32196	38414	11	32572	
3288	0	34080	32051	38436	11	32810	
3289	0	34092	31888	38448	11	32941	
3290	0	34096	31893	38433	11	32652	
3291	0	34113	31872	38380	10	32570	
3292	0	34052	31822	38350	11	32572	
3293	0	34006	31764	38330	12	32680	
3294	0	34034	31699	38274	11	32730	
3295	0	34088	31760	38194	10	32580	
3296	0	34132	31877	38126	12	32672	
3297	0	34177	32014	38144	11	32540	
3298	0	34160	32118	38170	11	32512	
3299	0	34108	32134	38226	11	32801	
3300	0	34052	32220	38268	12	32768	
3301	0	33992	32369	38332	12	32924	
3302	0	33962	32508	38407	10	32695	
3303	0	33970	32581	38430	12	32708	
3304	0	33991	32617	38412	11	32796	
3305	0	34008	32597	38407	10	32650	
3306	0	34021	32572	38402	12	32840	
3307	0	34009	32549	38364	12	32758	
3308	0	34016	32519	38352	10	32426	
3309	0	34044	32512	38353	11	32739	
3310	0	34074	32492	38368	11	32956	
3311	0	34100	32476	38356	12	32537	
3312	0	34134	32437	38348	11	32688	
3313	0	34169	32401	38348	12	32816	
3314	0	34180	32385	38361	10	32562	
3315	0	34192	32336	38368	11	32724	
3316	0	34188	32286	38372	12	32932	
3317	0	34216	32276	38386	10	32638	
3318	0	34224	32298	38372	11	32408	
3319	0	34226	32314	38398	12	32852	
3320	0	34220	32338	38400	11	32736	
3321	0	34228	32349	38372	12	32786	
3322	0	34232	32356	38352	12	32633	
3323	0	34224	32377	38352	12	32736	
3324	0	34220	32388	38330	10	32938	
3325	0	34234	32423	38324	10	32737	
3326	0	34233	32409	38322	12	32249	
3327	0	34220	32436	38289	12	32746	
3328	0	34226	32433	38268	11	32604	
3329	0	34222	32453	38269	11	32881	
3330	0	34224	32470	38242	11	32854	
3331	0	34218	32480	38250	10	32630	
3332	0	34230	32471	38236	12	32616	
3333	0	34224	32473	38218	11	32464	
3334	0	34224	32480	38232	13	32757	
3335	0	34234	32464	38242	10	32392	
3336	0	34262	32442	38244	10	32752	
