# OpenSignals Text File Format. Version 1
# {"00:07:80:0F:2F:DC": {"position": 0, "device": "biosignalsplux", "device name": "00:07:80:0F:2F:DC", "device connection": "BTH00:07:80:0F:2F:DC", "sampling rate": 1000, "resolution": [16, 16, 16, 16, 16], "firmware version": 775, "comments": "", "keywords": "", "mode": 0, "sync interval": 2, "date": "2021-10-23", "time": "13:18:46.358", "channels": [1, 2, 3, 4, 5], "sensor": ["XYZ", "XYZ", "XYZ", "FSRII", "EMG"], "label": ["CH1", "CH2", "CH3", "CH4", "CH5"], "column": ["nSeq", "DI", "CH1", "CH2", "CH3", "CH4", "CH5"], "special": [{"SpO2": [80, 40, 5, 4, 3, 3]}, {"SpO2": [80, 40, 5, 4, 3, 3]}, {"SpO2": [80, 40, 5, 4, 3, 3]}, {"SpO2": [80, 40, 5, 4, 3, 3]}, {"SpO2": [80, 40, 5, 4, 3, 3]}, {"SpO2": [80, 40, 5, 4, 3, 3]}, {"SpO2": [80, 40, 5, 4, 3, 3]}, {"SpO2": [80, 40, 5, 4, 3, 3]}], "digital IO": [0, 1], "sleeve color": ["white", "white", "white", "black", "yellow"], "convertedValues": 0}}
# EndOfHeader
0	0	32828	27873	33376	51822	32344	
1	0	32844	27880	33364	51800	32376	
2	0	32852	27876	33388	51824	32164	
3	0	32853	27866	33392	51408	32096	
4	0	32852	27856	33368	51928	32296	
5	0	32845	27872	33392	51809	32344	
6	0	32832	27876	33400	51772	32472	
7	0	32824	27860	33416	51948	32332	
8	0	32821	27860	33420	51812	32504	
9	0	32816	27840	33400	51872	32780	
10	0	32804	27848	33400	51880	32997	
11	0	32790	27833	33390	51876	33112	
12	0	32792	27848	33388	51904	33292	
13	0	32792	27856	33372	51940	33530	
14	0	32800	27865	33392	51944	33772	
15	0	32808	27869	33400	51928	33560	
16	0	32812	27868	33396	51976	33274	
17	0	32800	27868	33416	51960	33088	
18	0	32804	27880	33416	51521	33072	
19	0	32800	27872	33436	52084	32836	
20	0	32816	27865	33432	51936	32616	
21	0	32816	27864	33416	51980	32405	
22	0	32812	27862	33416	51948	32364	
23	0	32812	27860	33404	51588	32277	
24	0	32824	27852	33400	52088	32256	
25	0	32812	27868	33420	51968	32200	
26	0	32800	27882	33428	51956	32412	
27	0	32810	27880	33412	51920	32364	
28	0	32808	27880	33408	51444	32496	
29	0	32812	27880	33426	52068	32608	
30	0	32816	27888	33444	51936	32788	
31	0	32802	27886	33416	51860	33020	
32	0	32810	27894	33416	52026	33308	
33	0	32816	27892	33416	51928	33448	
34	0	32816	27872	33408	51808	33528	
35	0	32832	27888	33400	52032	33528	
36	0	32828	27896	33396	51884	33364	
37	0	32816	27904	33416	51448	33128	
38	0	32820	27908	33412	51968	33088	
39	0	32828	27906	33393	51964	32768	
40	0	32840	27900	33396	51904	32652	
41	0	32848	27884	33360	51936	32688	
42	0	32848	27876	33388	51908	32460	
43	0	32858	27892	33412	51908	32240	
44	0	32850	27872	33420	51946	32284	
45	0	32861	27866	33394	52008	32336	
46	0	32856	27865	33408	51856	32104	
47	0	32860	27858	33404	51856	31512	
48	0	32858	27872	33384	51936	31748	
49	0	32858	27888	33372	51872	32736	
50	0	32878	27888	33372	51448	33348	
51	0	32869	27896	33380	51904	33688	
52	0	32860	27900	33372	51756	33968	
53	0	32864	27897	33380	51788	33960	
54	0	32853	27905	33384	51784	33888	
55	0	32856	27910	33388	51308	33450	
56	0	32856	27900	33396	51728	33308	
57	0	32864	27896	33404	51792	33184	
58	0	32868	27896	33416	51712	33120	
59	0	32864	27896	33388	51580	32644	
60	0	32864	27896	33386	51824	32584	
61	0	32874	27896	33377	51684	32456	
62	0	32872	27896	33392	51680	32282	
63	0	32880	27890	33368	51280	32056	
64	0	32888	27888	33364	51720	32064	
65	0	32884	27893	33364	51706	32100	
66	0	32880	27888	33360	51560	32196	
67	0	32876	27896	33368	51248	32092	
68	0	32876	27882	33372	51584	32316	
69	0	32888	27872	33376	51536	32796	
70	0	32884	27864	33364	51616	32840	
71	0	32876	27888	33352	51508	33096	
72	0	32876	27894	33328	51280	33296	
73	0	32880	27892	33340	51608	33276	
74	0	32888	27896	33336	51508	33032	
75	0	32882	27898	33344	51240	33130	
76	0	32888	27880	33336	51664	33348	
77	0	32868	27872	33348	51530	33520	
78	0	32858	27876	33352	51380	33516	
79	0	32852	27866	33336	51616	33056	
80	0	32860	27884	33352	51500	32936	
81	0	32856	27900	33368	51516	32746	
82	0	32848	27892	33364	51568	32508	
83	0	32848	27900	33364	51416	32218	
84	0	32856	27896	33360	51392	32352	
85	0	32844	27902	33374	51412	31964	
86	0	32840	27922	33380	51412	31377	
87	0	32848	27924	33366	51528	31232	
88	0	32845	27932	33368	51440	31770	
89	0	32864	27920	33360	51444	33028	
90	0	32842	27924	33368	51440	33712	
91	0	32844	27938	33348	51228	34024	
92	0	32840	27928	33348	51592	34056	
93	0	32827	27924	33316	51472	34264	
94	0	32820	27917	33324	51352	34120	
95	0	32803	27916	33328	51648	33888	
96	0	32804	27912	33312	51592	33568	
97	0	32808	27921	33304	51688	33424	
98	0	32794	27904	33308	51672	33040	
99	0	32768	27924	33336	51344	32574	
100	0	32756	27908	33344	51804	32424	
101	0	32770	27898	33368	51732	32256	
102	0	32778	27864	33352	51784	32072	
103	0	32784	27844	33352	51748	31760	
104	0	32780	27841	33338	51744	31910	
105	0	32768	27844	33352	51809	32068	
106	0	32764	27852	33352	51876	32156	
107	0	32753	27864	33332	51944	32186	
108	0	32756	27868	33340	51868	32348	
109	0	32764	27876	33352	51777	32540	
110	0	32776	27873	33336	52040	32852	
111	0	32780	27864	33324	51960	33068	
112	0	32776	27860	33333	51892	33232	
113	0	32756	27888	33340	52112	33356	
114	0	32744	27872	33332	52016	33496	
115	0	32736	27856	33344	51740	33560	
116	0	32742	27850	33344	52196	33352	
117	0	32736	27846	33348	52112	33196	
118	0	32728	27848	33346	52048	32960	
119	0	32744	27838	33348	52212	32768	
120	0	32732	27824	33348	52132	32720	
121	0	32756	27817	33332	52108	32556	
122	0	32756	27824	33345	52248	32512	
123	0	32760	27824	33348	52168	32332	
124	0	32756	27820	33364	52236	32312	
125	0	32744	27834	33360	52176	32340	
126	0	32732	27848	33344	52024	31878	
127	0	32712	27852	33340	52288	31576	
128	0	32706	27868	33336	52188	32144	
129	0	32704	27872	33324	52228	32910	
130	0	32716	27858	33321	52248	33496	
131	0	32712	27864	33324	52200	33634	
132	0	32713	27872	33336	52332	33784	
133	0	32724	27876	33352	52184	33884	
134	0	32728	27880	33360	52216	33784	
135	0	32728	27860	33372	52360	33482	
136	0	32728	27868	33368	52300	33350	
137	0	32728	27852	33344	52262	33240	
138	0	32728	27856	33340	52364	33000	
139	0	32724	27848	33336	52312	32552	
140	0	32718	27852	33338	52368	32426	
141	0	32724	27853	33349	52296	32328	
142	0	32712	27856	33364	51864	32266	
143	0	32716	27866	33348	52396	32136	
144	0	32712	27876	33340	52236	32316	
145	0	32692	27888	33316	51972	32424	
146	0	32704	27881	33300	52332	32104	
147	0	32700	27876	33290	52240	32116	
148	0	32708	27882	33280	52232	32528	
149	0	32712	27880	33284	52236	32912	
150	0	32716	27892	33256	52260	33212	
151	0	32720	27888	33272	52240	33140	
152	0	32712	27904	33288	52168	33308	
153	0	32720	27908	33296	52308	33384	
154	0	32720	27908	33288	52184	33408	
155	0	32714	27940	33300	51866	33272	
156	0	32714	27924	33294	52192	33224	
157	0	32692	27928	33296	52216	33112	
158	0	32692	27936	33296	52104	33024	
159	0	32698	27940	33273	52184	32636	
160	0	32704	27932	33268	52198	32529	
161	0	32704	27922	33268	52132	32640	
162	0	32696	27936	33252	52064	32560	
163	0	32700	27928	33276	52252	32532	
164	0	32696	27944	33272	52148	32252	
165	0	32704	27940	33264	52044	32352	
166	0	32696	27956	33276	52188	32444	
167	0	32697	27944	33276	52136	32432	
168	0	32688	27960	33268	52144	32412	
169	0	32692	27944	33272	52160	32680	
170	0	32688	27946	33242	52140	32912	
171	0	32688	27920	33220	52241	32988	
172	0	32696	27908	33200	52152	32986	
173	0	32688	27900	33212	52152	33369	
174	0	32700	27885	33256	52172	33408	
175	0	32696	27892	33284	51944	33436	
176	0	32688	27898	33280	52332	33212	
177	0	32681	27896	33296	52192	33172	
178	0	32696	27892	33296	52016	33116	
179	0	32690	27888	33288	52336	32424	
180	0	32688	27892	33284	52194	32024	
181	0	32680	27900	33280	52292	32500	
182	0	32692	27890	33272	52248	32240	
183	0	32698	27892	33296	52264	32124	
184	0	32696	27886	33305	52356	31840	
185	0	32704	27896	33296	52216	32440	
186	0	32704	27896	33320	52144	32856	
187	0	32697	27896	33328	52332	32980	
188	0	32704	27896	33324	52256	32842	
189	0	32704	27900	33324	52240	33128	
190	0	32708	27882	33312	52272	33372	
191	0	32700	27904	33312	52292	33528	
192	0	32704	27894	33316	52400	33476	
193	0	32690	27896	33320	52280	33756	
194	0	32696	27916	33308	52240	33852	
195	0	32696	27904	33312	52444	33588	
196	0	32708	27900	33332	52300	33148	
197	0	32708	27889	33354	52236	32954	
198	0	32712	27872	33360	52356	32892	
199	0	32728	27882	33356	52332	32760	
200	0	32724	27872	33368	52432	32560	
201	0	32728	27868	33352	52332	32512	
202	0	32728	27860	33352	52160	32316	
203	0	32722	27882	33384	52464	32016	
204	0	32728	27876	33380	52328	31936	
205	0	32736	27876	33377	52356	31845	
206	0	32736	27872	33354	52300	31652	
207	0	32748	27856	33380	52168	31664	
208	0	32748	27856	33380	52452	32434	
209	0	32756	27856	33368	52322	32944	
210	0	32752	27858	33380	52052	33504	
211	0	32753	27861	33390	52432	33508	
212	0	32754	27868	33384	52288	33544	
213	0	32770	27862	33392	52064	33476	
214	0	32772	27864	33392	52394	33448	
215	0	32780	27877	33396	52308	33248	
216	0	32788	27868	33388	52120	33258	
217	0	32784	27872	33381	52288	32976	
218	0	32792	27864	33388	51968	32776	
219	0	32804	27868	33392	52352	32652	
220	0	32810	27856	33388	51884	32736	
221	0	32804	27866	33400	52400	32404	
222	0	32804	27872	33378	52268	32396	
223	0	32808	27876	33356	52300	32232	
224	0	32800	27888	33356	52228	32144	
225	0	32796	27892	33348	52144	32236	
226	0	32800	27880	33368	52260	32344	
227	0	32816	27868	33342	52056	32256	
228	0	32820	27882	33344	52264	32396	
229	0	32814	27868	33328	52216	32780	
230	0	32816	27874	33336	52332	32960	
231	0	32818	27876	33328	52220	33276	
232	0	32828	27872	33324	52260	33464	
233	0	32836	27872	33340	52176	33624	
234	0	32836	27872	33352	51868	33632	
235	0	32856	27876	33384	52296	33360	
236	0	32856	27872	33380	52180	33402	
237	0	32866	27864	33368	52276	33260	
238	0	32860	27860	33368	52172	33016	
239	0	32858	27874	33360	52016	32692	
240	0	32856	27896	33368	52232	32638	
241	0	32868	27906	33352	52144	32528	
242	0	32872	27900	33352	52164	32352	
243	0	32880	27896	33366	52136	32256	
244	0	32876	27900	33354	51962	32538	
245	0	32900	27892	33360	52200	32640	
246	0	32888	27900	33356	52112	32593	
247	0	32892	27896	33364	52092	32434	
248	0	32884	27894	33384	52144	32464	
249	0	32876	27900	33376	52088	32620	
250	0	32896	27900	33368	52192	32716	
251	0	32885	27908	33349	52077	32712	
252	0	32882	27914	33328	52088	33152	
253	0	32900	27928	33336	52160	33296	
254	0	32908	27914	33360	52080	33468	
255	0	32912	27908	33360	51788	33338	
256	0	32904	27904	33360	52204	33256	
257	0	32916	27912	33356	52080	33136	
258	0	32912	27908	33352	52004	33060	
259	0	32896	27902	33344	52180	32708	
260	0	32908	27896	33364	52096	32712	
261	0	32916	27908	33368	52080	32716	
262	0	32904	27916	33354	52200	32556	
263	0	32904	27916	33344	52068	32434	
264	0	32901	27910	33324	51608	32180	
265	0	32904	27908	33312	52168	31962	
266	0	32896	27912	33320	52040	31448	
267	0	32892	27889	33360	51644	31320	
268	0	32884	27896	33376	52144	31290	
269	0	32892	27890	33368	52016	31992	
270	0	32884	27892	33368	51544	33304	
271	0	32880	27900	33360	52144	34320	
272	0	32884	27890	33364	52028	34784	
273	0	32880	27888	33368	52056	34636	
274	0	32880	27896	33372	52136	34280	
275	0	32882	27898	33364	52024	34136	
276	0	32884	27893	33348	51760	34060	
277	0	32888	27892	33352	52152	33704	
278	0	32884	27875	33360	52052	33216	
279	0	32874	27884	33381	52064	32752	
280	0	32864	27886	33364	52088	32208	
281	0	32864	27886	33348	52064	31764	
282	0	32872	27876	33336	52088	31606	
283	0	32858	27874	33340	52104	31660	
284	0	32852	27880	33344	52088	31412	
285	0	32848	27904	33326	52124	31680	
286	0	32848	27908	33320	52080	31944	
287	0	32848	27920	33312	52088	31884	
288	0	32840	27928	33296	52154	32224	
289	0	32840	27904	33296	52112	32804	
290	0	32848	27912	33296	52104	33314	
291	0	32840	27916	33288	52192	33312	
292	0	32836	27916	33280	52096	33592	
293	0	32828	27916	33276	51752	33918	
294	0	32813	27888	33308	52248	34260	
295	0	32808	27884	33324	52144	34376	
296	0	32796	27880	33306	52236	33872	
297	0	32788	27876	33316	52176	33156	
298	0	32788	27864	33304	52152	32636	
299	0	32786	27861	33296	52200	32436	
300	0	32792	27848	33308	52040	32400	
301	0	32776	27856	33328	52320	32096	
302	0	32788	27856	33300	52208	32120	
303	0	32776	27860	33296	52308	32108	
304	0	32764	27850	33296	52224	32208	
305	0	32766	27874	33274	52208	32060	
306	0	32760	27868	33272	52358	32288	
307	0	32736	27866	33294	52248	32280	
308	0	32736	27856	33292	52240	32368	
309	0	32744	27856	33280	52352	32588	
310	0	32760	27836	33276	52304	32914	
311	0	32762	27825	33276	52304	33173	
312	0	32752	27828	33288	52408	33248	
313	0	32760	27828	33296	52328	33464	
314	0	32756	27832	33296	52392	33626	
315	0	32768	27840	33280	52328	33608	
316	0	32772	27850	33272	52452	33512	
317	0	32760	27856	33270	52356	33096	
318	0	32764	27856	33260	52176	33112	
319	0	32752	27860	33266	52448	33016	
320	0	32768	27850	33274	52304	32824	
321	0	32758	27856	33288	51876	32676	
322	0	32748	27852	33288	52432	32428	
323	0	32746	27856	33324	52344	32392	
324	0	32733	27860	33308	52424	32152	
325	0	32733	27852	33304	52336	32280	
326	0	32744	27860	33272	52360	32372	
327	0	32744	27852	33272	52424	32398	
328	0	32736	27860	33268	52304	32320	
329	0	32744	27862	33284	52248	32624	
330	0	32744	27866	33290	52456	32818	
331	0	32756	27856	33280	52336	33088	
332	0	32756	27860	33289	52436	33124	
333	0	32752	27852	33296	52304	33504	
334	0	32752	27860	33312	52264	33616	
335	0	32744	27872	33328	52432	33528	
336	0	32756	27880	33300	52308	33438	
337	0	32748	27888	33308	52292	33268	
338	0	32760	27880	33300	52296	33184	
339	0	32768	27872	33308	52168	32740	
340	0	32773	27868	33324	52416	32560	
341	0	32796	27868	33332	52280	32484	
342	0	32793	27862	33328	52176	32180	
343	0	32788	27852	33320	52396	32084	
344	0	32794	27848	33324	52236	32016	
345	0	32780	27860	33320	52184	32208	
346	0	32776	27872	33316	52368	32106	
347	0	32792	27880	33300	52208	31476	
348	0	32792	27880	33288	52216	30776	
349	0	32800	27868	33284	52248	31608	
350	0	32793	27876	33288	52180	33088	
351	0	32814	27876	33304	52188	34212	
352	0	32812	27876	33312	52240	34780	
353	0	32812	27880	33309	52132	34890	
354	0	32810	27881	33308	51752	34664	
355	0	32816	27873	33312	52260	33944	
356	0	32816	27876	33308	52112	33376	
357	0	32816	27888	33310	52060	33057	
358	0	32812	27892	33296	52232	33244	
359	0	32816	27890	33281	52090	32968	
360	0	32820	27880	33292	52104	32244	
361	0	32816	27876	33313	52124	32164	
362	0	32808	27882	33310	51996	31962	
363	0	32816	27888	33308	51804	32052	
364	0	32802	27876	33312	52072	32052	
365	0	32784	27884	33296	51888	32136	
366	0	32792	27885	33308	51656	32272	
367	0	32792	27900	33316	51932	32345	
368	0	32804	27884	33300	51768	32312	
369	0	32816	27873	33300	51356	32524	
370	0	32808	27884	33316	51832	32848	
371	0	32804	27880	33301	51700	33096	
372	0	32802	27880	33312	51712	33348	
373	0	32812	27876	33336	51752	33472	
374	0	32808	27876	33348	51648	33742	
375	0	32816	27888	33364	51624	33512	
376	0	32820	27876	33352	51640	33316	
377	0	32814	27872	33332	51648	33020	
378	0	32816	27888	33312	51588	33048	
379	0	32821	27876	33320	51460	32852	
380	0	32824	27884	33312	51608	32710	
381	0	32810	27880	33292	51504	32440	
382	0	32813	27884	33284	51176	32420	
383	0	32808	27870	33294	51552	32340	
384	0	32812	27869	33314	51412	32416	
385	0	32808	27868	33328	51384	32280	
386	0	32820	27864	33332	51492	32468	
387	0	32802	27866	33328	51396	32436	
388	0	32808	27856	33296	51456	32304	
389	0	32809	27852	33316	51448	32516	
390	0	32802	27860	33324	51364	32896	
391	0	32808	27868	33320	51336	33036	
392	0	32816	27864	33324	51424	33020	
393	0	32838	27852	33328	51344	33300	
394	0	32824	27860	33364	51348	33466	
395	0	32820	27864	33356	51288	33408	
396	0	32828	27860	33368	51284	33376	
397	0	32824	27868	33368	51292	33188	
398	0	32824	27872	33356	51168	33000	
399	0	32820	27888	33336	50912	32730	
400	0	32816	27888	33352	51220	32796	
401	0	32836	27884	33338	51096	32656	
402	0	32836	27877	33329	51080	32532	
403	0	32840	27872	33332	51052	32356	
404	0	32844	27880	33332	51024	32456	
405	0	32840	27876	33360	50808	32440	
406	0	32832	27872	33364	51092	32436	
407	0	32824	27878	33328	50912	32276	
408	0	32814	27880	33333	50680	32468	
409	0	32816	27872	33336	51004	32757	
410	0	32818	27868	33360	50932	32896	
411	0	32832	27864	33348	50888	32996	
412	0	32824	27880	33344	50874	33172	
413	0	32824	27880	33352	50952	33268	
414	0	32830	27884	33360	50792	33052	
415	0	32832	27872	33352	50644	32718	
416	0	32829	27860	33352	50868	32818	
417	0	32816	27868	33336	50696	32840	
418	0	32820	27880	33332	50440	33088	
419	0	32824	27868	33312	50654	33324	
420	0	32833	27872	33330	50612	32616	
421	0	32834	27876	33344	50232	31424	
422	0	32840	27885	33344	50644	31816	
423	0	32841	27889	33348	50564	32980	
424	0	32848	27884	33344	50512	34036	
425	0	32856	27880	33344	50464	34532	
426	0	32848	27886	33348	50544	34016	
427	0	32841	27904	33368	50400	33368	
428	0	32850	27908	33384	50240	32744	
429	0	32852	27908	33368	50464	32709	
430	0	32856	27912	33356	50364	32984	
431	0	32844	27920	33341	50344	32992	
432	0	32836	27924	33368	50356	32952	
433	0	32844	27944	33364	50304	32908	
434	0	32844	27952	33348	49848	32736	
435	0	32840	27956	33344	50384	32608	
436	0	32826	27954	33354	50256	32768	
437	0	32828	27960	33364	50232	32834	
438	0	32836	27946	33360	50240	32752	
439	0	32833	27948	33348	49856	32717	
440	0	32836	27948	33348	50344	32480	
441	0	32832	27936	33320	50176	32436	
442	0	32824	27932	33324	50096	32264	
443	0	32828	27920	33332	50360	32208	
444	0	32828	27904	33338	50218	32350	
445	0	32824	27902	33352	50208	32404	
446	0	32820	27908	33344	50224	32308	
447	0	32812	27898	33340	50092	32474	
448	0	32812	27880	33348	50352	32524	
449	0	32808	27876	33360	49988	32600	
450	0	32812	27876	33346	50340	32914	
451	0	32804	27888	33332	49844	33032	
452	0	32804	27890	33316	50412	33208	
453	0	32820	27880	33324	50296	33349	
454	0	32816	27888	33336	50324	33501	
455	0	32808	27884	33328	50316	33392	
456	0	32818	27882	33352	50028	33344	
457	0	32812	27877	33328	50468	33200	
458	0	32820	27880	33346	50400	32992	
459	0	32832	27880	33354	50368	32900	
460	0	32828	27877	33344	50336	32748	
461	0	32840	27888	33344	50188	32684	
462	0	32828	27880	33332	50376	32468	
463	0	32828	27884	33320	49988	32504	
464	0	32824	27872	33298	50360	32292	
465	0	32824	27853	33296	50308	32336	
466	0	32824	27852	33292	50376	32440	
467	0	32808	27866	33324	50256	32292	
468	0	32824	27864	33328	50360	32472	
469	0	32824	27848	33306	50264	32637	
470	0	32824	27848	33352	50344	32740	
471	0	32824	27856	33340	50264	33016	
472	0	32833	27848	33328	50300	33204	
473	0	32828	27858	33324	50172	33308	
474	0	32840	27868	33304	50064	33556	
475	0	32833	27872	33304	50224	33548	
476	0	32852	27874	33296	50096	33356	
477	0	32848	27860	33312	49796	33244	
478	0	32856	27852	33280	50160	33085	
479	0	32848	27864	33292	50008	32996	
480	0	32864	27864	33308	49856	32668	
481	0	32872	27868	33322	50048	32714	
482	0	32855	27874	33328	49938	32548	
483	0	32864	27872	33338	49808	32372	
484	0	32860	27872	33330	49972	32408	
485	0	32864	27872	33324	49892	32428	
486	0	32849	27872	33316	49924	32360	
487	0	32856	27852	33328	49804	32348	
488	0	32874	27858	33320	49377	32352	
489	0	32866	27872	33316	49788	32596	
490	0	32868	27856	33336	49684	32876	
491	0	32880	27860	33322	49260	33082	
492	0	32870	27860	33320	49700	33297	
493	0	32880	27864	33312	49656	33172	
494	0	32882	27860	33316	49564	33140	
495	0	32885	27868	33300	49348	32660	
496	0	32880	27848	33304	49606	32980	
497	0	32876	27868	33320	49412	33108	
498	0	32888	27856	33312	49376	33536	
499	0	32882	27864	33298	49352	33496	
500	0	32870	27864	33296	49356	33400	
501	0	32880	27866	33300	49264	33018	
502	0	32888	27866	33300	49228	32744	
503	0	32878	27852	33276	49212	32548	
504	0	32884	27878	33276	49168	32400	
505	0	32885	27876	33278	49140	32648	
506	0	32884	27876	33296	49096	32432	
507	0	32888	27881	33324	49016	32200	
508	0	32896	27892	33322	48936	32134	
509	0	32880	27904	33340	49064	32332	
510	0	32880	27890	33336	48960	32636	
511	0	32888	27904	33324	48896	32730	
512	0	32876	27900	33344	48992	33084	
513	0	32876	27906	33332	48920	33228	
514	0	32880	27908	33336	48992	33237	
515	0	32877	27912	33336	48856	32045	
516	0	32888	27912	33345	48656	31968	
517	0	32892	27900	33345	48976	32496	
518	0	32885	27904	33356	48864	33200	
519	0	32904	27908	33340	48949	33832	
520	0	32880	27924	33340	48856	34082	
521	0	32884	27928	33356	48944	33834	
522	0	32880	27920	33346	48848	33401	
523	0	32896	27906	33352	48708	33093	
524	0	32888	27900	33336	48840	33040	
525	0	32884	27900	33332	48820	33292	
526	0	32876	27892	33356	48792	32956	
527	0	32884	27888	33368	48808	32384	
528	0	32872	27896	33372	48576	32074	
529	0	32872	27908	33354	48844	32232	
530	0	32864	27900	33372	48456	32440	
531	0	32868	27896	33348	48876	32562	
532	0	32872	27904	33344	48548	32716	
533	0	32868	27888	33348	48876	32900	
534	0	32868	27896	33344	48836	33340	
535	0	32856	27892	33320	48644	33508	
536	0	32876	27888	33348	48920	33412	
537	0	32876	27872	33344	48824	33232	
538	0	32884	27868	33328	48920	32932	
539	0	32880	27876	33320	48772	32708	
540	0	32864	27882	33332	48904	32436	
541	0	32864	27881	33336	48784	32394	
542	0	32856	27876	33304	48716	32280	
543	0	32840	27872	33292	48944	32092	
544	0	32860	27884	33284	48784	32116	
545	0	32860	27888	33284	48752	32232	
546	0	32866	27896	33276	48780	32340	
547	0	32864	27892	33280	48780	32336	
548	0	32872	27888	33280	48744	31858	
549	0	32868	27888	33296	48768	32188	
550	0	32876	27882	33294	48516	33114	
551	0	32872	27896	33296	48844	33688	
552	0	32868	27896	33292	48810	34013	
553	0	32876	27896	33306	48888	34012	
554	0	32880	27892	33308	48796	33848	
555	0	32880	27908	33308	48484	33712	
556	0	32886	27912	33304	48936	33360	
557	0	32898	27924	33288	48804	33156	
558	0	32892	27916	33293	48576	32984	
559	0	32896	27916	33304	48938	32936	
560	0	32892	27924	33292	48848	32660	
561	0	32904	27906	33284	48472	32328	
562	0	32904	27908	33288	48954	32056	
563	0	32900	27908	33276	48856	32181	
564	0	32894	27904	33286	48488	32260	
565	0	32908	27924	33280	48964	32436	
566	0	32912	27912	33292	48856	32442	
567	0	32917	27900	33272	48656	32476	
568	0	32916	27892	33288	48968	32529	
569	0	32916	27892	33284	48932	32674	
570	0	32920	27890	33288	48944	32964	
571	0	32912	27888	33264	49000	33150	
572	0	32910	27884	33256	48912	33504	
573	0	32902	27888	33264	48746	33640	
574	0	32904	27892	33264	49000	33616	
575	0	32912	27880	33256	48968	33322	
576	0	32904	27888	33252	48920	33148	
577	0	32892	27892	33284	48976	33008	
578	0	32894	27884	33284	48876	32964	
579	0	32892	27881	33264	49084	32800	
580	0	32892	27872	33268	48984	32720	
581	0	32884	27858	33262	48720	32552	
582	0	32880	27856	33244	49104	32516	
583	0	32876	27856	33248	49008	32400	
584	0	32880	27856	33248	49076	32468	
585	0	32880	27860	33248	49000	32442	
586	0	32878	27864	33256	48880	32504	
587	0	32888	27872	33248	49120	32512	
588	0	32884	27857	33240	49000	32608	
589	0	32884	27872	33248	48572	32612	
590	0	32880	27874	33240	49016	32808	
591	0	32872	27864	33244	49108	32794	
592	0	32866	27872	33236	49076	33068	
593	0	32856	27872	33224	49044	33212	
594	0	32856	27872	33234	49056	33224	
595	0	32852	27846	33240	48632	33368	
596	0	32840	27836	33244	49184	33272	
597	0	32848	27812	33260	49072	33160	
598	0	32840	27808	33276	49124	32980	
599	0	32832	27800	33272	49060	32984	
600	0	32820	27792	33284	48932	32808	
601	0	32818	27808	33312	49212	32776	
602	0	32808	27808	33304	49096	32680	
603	0	32813	27804	33274	49008	32584	
604	0	32820	27808	33264	49224	32504	
605	0	32844	27800	33290	49104	32380	
606	0	32828	27824	33280	48664	32516	
607	0	32832	27840	33300	49216	32500	
608	0	32832	27842	33284	49096	32461	
609	0	32834	27836	33298	49076	32680	
610	0	32830	27844	33320	49104	32796	
611	0	32824	27858	33296	49096	32896	
612	0	32825	27848	33304	49082	32752	
613	0	32836	27852	33274	49144	32280	
614	0	32812	27857	33276	49116	32648	
615	0	32816	27860	33276	49104	33264	
616	0	32828	27880	33248	49096	33872	
617	0	32840	27865	33256	48704	33984	
618	0	32817	27868	33265	49132	33940	
619	0	32816	27874	33280	49088	33472	
620	0	32828	27868	33256	48812	33112	
621	0	32832	27876	33252	49212	32784	
622	0	32824	27880	33244	49080	32752	
623	0	32832	27884	33236	49120	32600	
624	0	32836	27880	33256	49000	32506	
625	0	32852	27876	33280	48922	32232	
626	0	32848	27888	33260	49008	32184	
627	0	32845	27892	33268	48980	32196	
628	0	32832	27904	33268	48992	32290	
629	0	32827	27904	33280	48936	32318	
630	0	32832	27906	33256	48524	32120	
631	0	32826	27904	33254	48952	32456	
632	0	32844	27900	33264	48844	32680	
633	0	32848	27908	33264	48656	33312	
634	0	32852	27892	33268	48973	33624	
635	0	32856	27904	33276	48852	33740	
636	0	32856	27896	33264	48824	33440	
637	0	32852	27897	33280	48812	33324	
638	0	32832	27904	33292	48808	33132	
639	0	32844	27904	33308	48796	32572	
640	0	32836	27912	33296	48764	32546	
641	0	32824	27904	33284	48712	33020	
642	0	32836	27896	33276	48708	32880	
643	0	32838	27896	33260	48640	32832	
644	0	32848	27884	33264	48180	32864	
645	0	32848	27890	33296	48632	32980	
646	0	32860	27878	33304	48548	32808	
647	0	32864	27864	33292	48464	32784	
648	0	32864	27864	33304	48440	32688	
649	0	32848	27888	33280	48392	32900	
650	0	32852	27898	33280	47952	32824	
651	0	32856	27912	33272	48488	32669	
652	0	32864	27904	33284	48312	32573	
653	0	32872	27906	33284	48216	33040	
654	0	32870	27912	33286	48336	33276	
655	0	32872	27930	33296	48272	33254	
656	0	32864	27924	33280	48220	33056	
657	0	32860	27921	33290	48192	32976	
658	0	32860	27920	33296	47968	32964	
659	0	32868	27920	33280	48236	32757	
660	0	32872	27928	33272	48084	32628	
661	0	32884	27920	33258	48120	32546	
662	0	32882	27916	33252	48176	32496	
663	0	32888	27924	33228	48080	32514	
664	0	32872	27924	33220	47788	32376	
665	0	32864	27912	33228	48168	32500	
666	0	32868	27902	33238	48008	32560	
667	0	32860	27909	33244	47956	32682	
668	0	32866	27892	33240	48000	32620	
669	0	32862	27897	33232	48012	32692	
670	0	32856	27912	33256	48000	32732	
671	0	32864	27914	33260	48052	33020	
672	0	32876	27900	33252	47960	33044	
673	0	32876	27896	33252	48024	33200	
674	0	32870	27904	33264	47888	33216	
675	0	32888	27896	33272	47613	33368	
676	0	32890	27884	33271	48032	33280	
677	0	32896	27880	33272	47916	33084	
678	0	32896	27885	33276	47664	33056	
679	0	32896	27876	33264	48008	32940	
680	0	32881	27872	33248	47900	32924	
681	0	32889	27866	33240	47812	32784	
682	0	32900	27852	33236	47912	32712	
683	0	32892	27838	33240	47884	32584	
684	0	32889	27836	33220	47904	32520	
685	0	32888	27848	33248	47832	32460	
686	0	32892	27848	33252	47644	32520	
687	0	32884	27842	33260	47857	32568	
688	0	32876	27836	33252	47808	32442	
689	0	32884	27826	33272	47856	32650	
690	0	32900	27820	33272	47824	32656	
691	0	32900	27832	33268	47536	32772	
692	0	32886	27842	33262	47936	33006	
693	0	32904	27850	33268	47818	32576	
694	0	32900	27856	33284	47940	31752	
695	0	32920	27848	33288	47808	32388	
696	0	32909	27844	33300	47928	33324	
697	0	32912	27852	33308	47776	34106	
698	0	32928	27856	33324	47616	34456	
699	0	32929	27856	33324	47796	34346	
700	0	32928	27860	33306	47744	34120	
701	0	32936	27874	33320	47736	33196	
702	0	32952	27882	33328	47636	32585	
703	0	32944	27892	33300	47538	32216	
704	0	32952	27892	33322	47712	32656	
705	0	32952	27888	33320	47580	32438	
706	0	32972	27880	33320	47660	31780	
707	0	32973	27876	33272	47592	31816	
708	0	32961	27864	33272	47617	31972	
709	0	32950	27880	33274	47528	32212	
710	0	32938	27886	33260	47632	32780	
711	0	32940	27886	33254	47500	33112	
712	0	32936	27877	33280	47512	33330	
713	0	32944	27864	33300	47508	33512	
714	0	32950	27856	33308	47376	33652	
715	0	32954	27864	33300	47520	33764	
716	0	32952	27868	33280	47084	33576	
717	0	32968	27868	33292	47592	33304	
718	0	32969	27880	33298	47496	32944	
719	0	32944	27888	33296	47504	32674	
720	0	32956	27880	33300	47448	32452	
721	0	32960	27892	33276	47560	32424	
722	0	32972	27884	33284	47452	32480	
723	0	32969	27888	33310	47496	32426	
724	0	32970	27882	33312	47524	32376	
725	0	32968	27873	33308	47200	32480	
726	0	32978	27866	33312	47588	32424	
727	0	32972	27880	33289	47464	32594	
728	0	32970	27896	33256	47472	32436	
729	0	32976	27904	33264	47504	32698	
730	0	32976	27908	33260	47272	32804	
731	0	32984	27908	33284	47616	33016	
732	0	32980	27916	33316	47556	33200	
733	0	32980	27928	33306	47688	33308	
734	0	32992	27898	33308	47636	33368	
735	0	32988	27905	33288	47620	33338	
736	0	32988	27914	33320	47732	33280	
737	0	32986	27924	33292	47688	33104	
738	0	32992	27924	33296	47712	32724	
739	0	32984	27924	33306	47680	32536	
740	0	32980	27928	33288	47312	32208	
741	0	32996	27896	33276	47812	32092	
742	0	32992	27892	33285	47692	32412	
743	0	32978	27882	33282	47736	32632	
744	0	32976	27888	33297	47808	32668	
745	0	32976	27896	33264	47789	32588	
746	0	32956	27892	33256	47812	32848	
747	0	32960	27888	33252	47800	32848	
748	0	32968	27880	33272	47416	32860	
749	0	32976	27888	33264	47936	33028	
750	0	32970	27892	33252	47844	33170	
751	0	32973	27888	33256	47854	33244	
752	0	32977	27880	33248	47868	33080	
753	0	32968	27888	33272	47684	33064	
754	0	32970	27884	33276	48008	33040	
755	0	32964	27902	33248	47960	33172	
756	0	32964	27896	33228	48024	33164	
757	0	32952	27892	33224	47968	33196	
758	0	32960	27912	33240	47808	33072	
759	0	32938	27920	33260	48116	33004	
760	0	32924	27918	33264	48044	32848	
761	0	32920	27908	33272	47872	32776	
762	0	32916	27896	33264	48148	32724	
763	0	32920	27896	33248	48128	32728	
764	0	32916	27904	33248	48204	32512	
765	0	32908	27900	33250	48144	32362	
766	0	32884	27900	33236	47832	32408	
767	0	32896	27906	33244	48288	32496	
768	0	32916	27892	33248	48228	32448	
769	0	32920	27892	33256	48024	32522	
770	0	32922	27888	33260	48384	32736	
771	0	32914	27880	33272	48296	32852	
772	0	32916	27876	33264	48204	33000	
773	0	32904	27876	33256	48368	33116	
774	0	32901	27888	33248	48234	33336	
775	0	32904	27880	33248	48520	33424	
776	0	32912	27884	33256	48456	33352	
777	0	32920	27880	33248	48552	32588	
778	0	32906	27884	33240	48500	31272	
779	0	32908	27888	33248	48472	31444	
780	0	32912	27880	33244	48632	32340	
781	0	32928	27864	33256	48224	32848	
782	0	32920	27872	33248	48720	33632	
783	0	32916	27888	33250	48668	34050	
784	0	32904	27882	33228	48700	34080	
785	0	32912	27884	33244	48696	33748	
786	0	32896	27884	33256	48716	33476	
787	0	32896	27880	33260	48752	33068	
788	0	32904	27864	33268	48636	33024	
789	0	32906	27876	33276	48872	32914	
790	0	32896	27884	33274	48588	32736	
791	0	32892	27896	33281	49008	32268	
792	0	32902	27904	33280	49012	32040	
793	0	32916	27904	33272	49088	32272	
794	0	32922	27904	33288	49000	32916	
795	0	32930	27888	33316	49096	33314	
796	0	32912	27908	33292	49108	33360	
797	0	32920	27906	33296	49160	33296	
798	0	32912	27908	33284	49152	33230	
799	0	32908	27902	33281	48840	33216	
800	0	32913	27892	33308	49324	33064	
801	0	32916	27876	33296	49268	33080	
802	0	32922	27880	33300	49320	32824	
803	0	32916	27886	33294	49292	32440	
804	0	32924	27880	33292	49352	32154	
805	0	32920	27876	33308	49352	32124	
806	0	32920	27872	33296	49260	32090	
807	0	32908	27890	33268	49489	32224	
808	0	32912	27888	33263	49488	32104	
809	0	32904	27893	33260	49608	32328	
810	0	32920	27876	33256	49516	32440	
811	0	32924	27884	33270	49192	32776	
812	0	32928	27892	33265	49688	32848	
813	0	32928	27892	33274	49628	33124	
814	0	32918	27894	33288	49672	33120	
815	0	32932	27892	33300	49744	33388	
816	0	32924	27892	33292	49708	33444	
817	0	32928	27896	33292	49793	33268	
818	0	32932	27904	33288	49732	33272	
819	0	32926	27912	33300	49600	33052	
820	0	32928	27905	33296	49892	32980	
821	0	32924	27924	33284	49788	32824	
822	0	32920	27920	33268	49980	32764	
823	0	32916	27920	33248	49888	32536	
824	0	32918	27912	33212	50008	32456	
825	0	32916	27898	33217	49936	32420	
826	0	32908	27888	33252	50004	32544	
827	0	32908	27888	33252	49992	32576	
828	0	32916	27868	33252	49754	32616	
829	0	32916	27858	33237	50120	32661	
830	0	32916	27852	33248	50061	32888	
831	0	32904	27850	33254	50064	33144	
832	0	32906	27844	33272	50208	33172	
833	0	32906	27842	33260	50144	33344	
834	0	32904	27842	33260	50244	33456	
835	0	32904	27852	33268	50172	33524	
836	0	32914	27856	33252	50266	33293	
837	0	32920	27872	33252	50176	33076	
838	0	32920	27880	33258	50240	33016	
839	0	32916	27892	33276	50184	32856	
840	0	32918	27905	33268	50104	32689	
841	0	32924	27913	33248	50308	32704	
842	0	32924	27894	33228	50168	32640	
843	0	32920	27898	33224	50328	32408	
844	0	32916	27898	33248	49852	32424	
845	0	32928	27876	33232	50408	32484	
846	0	32908	27872	33224	50316	32368	
847	0	32908	27888	33232	50412	32508	
848	0	32892	27874	33232	50296	32352	
849	0	32890	27865	33212	50408	32321	
850	0	32890	27868	33212	50344	32232	
851	0	32888	27873	33214	50320	32644	
852	0	32896	27877	33200	50448	32832	
853	0	32890	27872	33217	50056	33188	
854	0	32896	27872	33246	50560	33114	
855	0	32896	27864	33248	50454	32810	
856	0	32882	27882	33256	50544	33056	
857	0	32884	27892	33240	50472	33402	
858	0	32888	27880	33242	50428	34020	
859	0	32890	27872	33244	50640	34182	
860	0	32880	27888	33218	50604	34132	
861	0	32880	27888	33218	50632	33801	
862	0	32888	27880	33224	50612	33232	
863	0	32896	27876	33208	50664	32722	
864	0	32896	27870	33220	50588	32236	
865	0	32896	27877	33242	50572	32156	
866	0	32892	27880	33240	50692	32044	
867	0	32890	27884	33216	50240	31864	
868	0	32888	27888	33188	50824	31988	
869	0	32896	27904	33176	50720	32048	
870	0	32904	27888	33168	50876	32464	
871	0	32900	27894	33160	50780	32688	
872	0	32916	27888	33160	50936	32712	
873	0	32908	27885	33172	50856	33176	
874	0	32892	27877	33164	50992	33210	
875	0	32876	27868	33176	50924	33276	
876	0	32864	27836	33192	51000	33352	
877	0	32864	27828	33172	50972	33172	
878	0	32856	27804	33168	50800	33112	
879	0	32848	27796	33178	51092	32944	
880	0	32848	27784	33188	50780	32768	
881	0	32854	27784	33208	51096	32592	
882	0	32860	27780	33208	50808	32681	
883	0	32858	27788	33210	51132	32572	
884	0	32856	27809	33224	51088	32364	
885	0	32866	27816	33226	51152	32452	
886	0	32877	27832	33236	51040	32492	
887	0	32896	27854	33232	50952	32396	
888	0	32904	27872	33236	51100	32608	
889	0	32916	27889	33208	50900	32528	
890	0	32916	27906	33212	51064	32792	
891	0	32924	27916	33216	50852	32968	
892	0	32924	27912	33204	51232	32988	
893	0	32912	27900	33200	51136	33297	
894	0	32904	27896	33220	51208	33376	
895	0	32896	27884	33196	51144	33320	
896	0	32896	27876	33210	51040	33352	
897	0	32872	27840	33208	51304	33236	
898	0	32872	27836	33184	51224	32912	
899	0	32868	27830	33192	51340	31536	
900	0	32876	27824	33210	51244	30752	
901	0	32892	27832	33220	51280	31408	
902	0	32888	27834	33242	51224	32740	
903	0	32884	27850	33232	50856	33936	
904	0	32884	27852	33224	51344	34468	
905	0	32872	27860	33220	51244	34368	
906	0	32884	27876	33224	51352	33844	
907	0	32880	27896	33240	51220	33124	
908	0	32881	27888	33212	51328	32960	
909	0	32876	27896	33216	51192	32889	
910	0	32888	27920	33228	51244	33124	
911	0	32884	27936	33200	51292	32868	
912	0	32884	27926	33216	51140	32200	
913	0	32884	27936	33228	51264	32176	
914	0	32900	27916	33209	51128	32586	
915	0	32906	27922	33184	51392	32774	
916	0	32900	27920	33204	50864	32968	
917	0	32888	27916	33220	51465	32794	
918	0	32880	27916	33232	51384	32688	
919	0	32873	27900	33222	51468	32808	
920	0	32873	27888	33196	51324	32716	
921	0	32872	27888	33216	51448	32672	
922	0	32872	27872	33192	51372	32660	
923	0	32880	27884	33184	51464	32540	
924	0	32864	27876	33184	51332	32768	
925	0	32856	27861	33196	51424	32576	
926	0	32860	27876	33208	51328	32328	
927	0	32852	27882	33204	51388	32460	
928	0	32849	27882	33216	51400	32520	
929	0	32848	27888	33204	50928	32372	
930	0	32848	27884	33216	51464	32488	
931	0	32848	27880	33220	50924	32546	
932	0	32854	27884	33212	51512	32848	
933	0	32844	27882	33200	51360	33032	
934	0	32840	27880	33196	51440	33120	
935	0	32832	27876	33204	51456	33336	
936	0	32832	27876	33192	51424	33444	
937	0	32852	27866	33208	51536	33148	
938	0	32844	27862	33224	51436	32456	
939	0	32836	27864	33248	51504	32052	
940	0	32836	27858	33240	51424	32368	
941	0	32852	27857	33244	51480	32944	
942	0	32840	27852	33272	51432	33488	
943	0	32836	27860	33266	51276	33956	
944	0	32840	27864	33260	51480	33752	
945	0	32844	27868	33264	50996	33512	
946	0	32852	27868	33256	51528	32772	
947	0	32864	27872	33256	51464	32392	
948	0	32856	27874	33264	51336	32456	
949	0	32852	27888	33256	51632	32904	
950	0	32856	27888	33270	51540	32900	
951	0	32844	27892	33264	51664	32404	
952	0	32856	27898	33256	51544	32346	
953	0	32854	27880	33250	51612	32588	
954	0	32853	27872	33264	51520	32860	
955	0	32840	27874	33292	51608	32912	
956	0	32848	27868	33288	51578	33072	
957	0	32852	27880	33272	51616	33064	
958	0	32840	27884	33268	51560	32858	
959	0	32828	27884	33266	51316	32821	
960	0	32824	27884	33276	51720	32778	
961	0	32836	27892	33268	51616	32746	
962	0	32832	27892	33252	51712	32568	
963	0	32845	27882	33248	51592	32484	
964	0	32840	27872	33236	51634	32464	
965	0	32832	27872	33256	51576	32364	
966	0	32824	27872	33281	51428	32638	
967	0	32832	27868	33276	51688	32544	
968	0	32826	27864	33260	51632	32320	
969	0	32825	27860	33256	51712	32538	
970	0	32833	27864	33260	51608	32752	
971	0	32840	27872	33236	51440	32960	
972	0	32840	27864	33248	51724	32948	
973	0	32850	27872	33266	51328	33284	
974	0	32844	27868	33258	51768	33436	
975	0	32848	27900	33272	51632	33408	
976	0	32852	27896	33252	51596	33360	
977	0	32852	27882	33252	51648	33216	
978	0	32856	27880	33272	51656	33128	
979	0	32864	27880	33264	51632	32964	
980	0	32852	27888	33252	51722	32721	
981	0	32856	27893	33252	51584	32760	
982	0	32864	27892	33244	51344	32676	
983	0	32862	27896	33244	51706	32504	
984	0	32860	27898	33260	51572	32228	
985	0	32856	27910	33284	51460	32304	
986	0	32848	27898	33284	51660	32464	
987	0	32842	27912	33260	51504	32564	
988	0	32856	27888	33260	51396	32616	
989	0	32864	27888	33260	51516	32424	
990	0	32870	27884	33260	51464	32152	
991	0	32858	27906	33264	51496	31460	
992	0	32872	27902	33276	51428	31990	
993	0	32872	27908	33268	51313	32872	
994	0	32870	27909	33264	51520	34084	
995	0	32868	27902	33240	51140	34808	
996	0	32860	27898	33240	51544	34638	
997	0	32862	27908	33256	51384	34044	
998	0	32852	27904	33256	51248	33644	
999	0	32864	27888	33272	51496	33388	
1000	0	32860	27884	33264	51360	33124	
1001	0	32860	27880	33248	51452	33060	
1002	0	32884	27876	33252	51356	32742	
1003	0	32900	27880	33260	51408	31592	
1004	0	32892	27884	33274	51304	31160	
1005	0	32888	27880	33280	51348	31584	
1006	0	32872	27884	33268	51296	32208	
1007	0	32876	27884	33286	51112	32584	
1008	0	32865	27884	33300	51348	32948	
1009	0	32856	27882	33288	51096	33092	
1010	0	32860	27872	33288	51336	32942	
1011	0	32876	27896	33292	51000	33029	
1012	0	32878	27896	33304	51308	33016	
1013	0	32876	27912	33304	50852	33112	
1014	0	32876	27916	33298	51464	33152	
1015	0	32872	27912	33285	51300	33152	
1016	0	32880	27912	33320	51188	32068	
1017	0	32876	27912	33336	51402	31846	
1018	0	32877	27916	33332	50888	32228	
1019	0	32888	27904	33332	51424	33096	
1020	0	32888	27892	33310	51328	33564	
1021	0	32896	27880	33304	51324	33536	
1022	0	32888	27880	33308	51324	33360	
1023	0	32892	27874	33326	50952	32968	
1024	0	32896	27880	33312	51440	32608	
1025	0	32882	27884	33312	51360	32612	
1026	0	32878	27896	33308	51376	32720	
1027	0	32882	27900	33304	51480	32908	
1028	0	32868	27896	33304	51416	32626	
1029	0	32876	27888	33302	51536	32408	
1030	0	32884	27888	33308	51460	32188	
1031	0	32892	27892	33312	51320	32360	
1032	0	32892	27900	33304	51472	32428	
1033	0	32888	27890	33296	51016	32812	
1034	0	32888	27908	33316	51616	33088	
1035	0	32884	27896	33330	51492	33128	
1036	0	32876	27902	33328	51448	33218	
1037	0	32877	27896	33320	51480	33250	
1038	0	32888	27898	33300	51296	33130	
1039	0	32904	27898	33272	51665	32772	
1040	0	32890	27904	33272	51520	32880	
1041	0	32884	27901	33258	51504	33236	
1042	0	32889	27896	33276	51604	33336	
1043	0	32896	27908	33270	51556	32872	
1044	0	32876	27908	33280	51608	32736	
1045	0	32873	27916	33304	51540	32496	
1046	0	32868	27904	33280	51096	32416	
1047	0	32868	27901	33292	51688	32348	
1048	0	32876	27893	33296	51580	32324	
1049	0	32888	27892	33292	51144	32586	
1050	0	32884	27904	33308	51696	32736	
1051	0	32884	27920	33292	51604	32639	
1052	0	32880	27918	33282	51524	32768	
1053	0	32888	27916	33296	51776	33006	
1054	0	32884	27913	33304	51608	33076	
1055	0	32884	27904	33296	51360	33120	
1056	0	32880	27905	33282	51792	33050	
1057	0	32872	27904	33280	51704	33092	
1058	0	32864	27904	33280	51740	33048	
1059	0	32874	27892	33264	51736	33016	
1060	0	32872	27890	33264	51752	32840	
1061	0	32862	27888	33260	51824	32612	
1062	0	32864	27874	33261	51768	32664	
1063	0	32868	27880	33276	51852	32528	
1064	0	32864	27864	33274	51508	32464	
1065	0	32864	27866	33280	51880	32180	
1066	0	32844	27872	33284	51848	32426	
1067	0	32856	27860	33258	51804	32524	
1068	0	32852	27876	33264	51808	32578	
1069	0	32856	27874	33248	51984	32404	
1070	0	32864	27876	33260	51864	32756	
1071	0	32856	27880	33252	51624	32972	
1072	0	32860	27880	33232	51944	33060	
1073	0	32852	27876	33240	52052	33340	
1074	0	32864	27880	33236	51996	33350	
1075	0	32874	27868	33254	51800	33468	
1076	0	32876	27872	33280	52152	33506	
1077	0	32872	27861	33284	52032	33292	
1078	0	32872	27867	33276	52060	33108	
1079	0	32876	27857	33288	51936	32904	
1080	0	32876	27872	33288	52188	32880	
1081	0	32884	27864	33282	52064	32741	
1082	0	32872	27864	33264	51680	32440	
1083	0	32872	27864	33264	52208	32452	
1084	0	32880	27880	33252	52120	32364	
1085	0	32888	27880	33254	52160	32308	
1086	0	32884	27876	33244	52240	32404	
1087	0	32888	27876	33264	52154	32468	
1088	0	32888	27864	33284	52192	32140	
1089	0	32876	27856	33260	52249	31856	
1090	0	32868	27864	33268	52280	32288	
1091	0	32880	27872	33256	52184	32812	
1092	0	32872	27882	33260	51908	33176	
1093	0	32864	27884	33240	52344	33466	
1094	0	32864	27892	33236	52232	33824	
1095	0	32880	27886	33249	52248	33836	
1096	0	32884	27880	33252	52280	33756	
1097	0	32888	27889	33265	52392	33697	
1098	0	32876	27876	33265	52264	33490	
1099	0	32874	27896	33276	52268	32720	
1100	0	32880	27892	33284	52316	32040	
1101	0	32880	27888	33268	52304	31364	
1102	0	32884	27880	33252	52328	31536	
1103	0	32876	27884	33245	52360	32528	
1104	0	32858	27896	33244	52284	33230	
1105	0	32868	27904	33256	51868	33436	
1106	0	32872	27904	33240	52432	33416	
1107	0	32876	27892	33264	52296	32988	
1108	0	32880	27868	33276	51980	31880	
1109	0	32860	27864	33280	52492	31624	
1110	0	32854	27872	33288	52364	32460	
1111	0	32856	27864	33268	52346	33370	
1112	0	32873	27860	33240	52520	33848	
1113	0	32872	27856	33252	52410	33868	
1114	0	32866	27868	33226	52412	33954	
1115	0	32864	27880	33232	52516	33656	
1116	0	32868	27896	33224	52458	33284	
1117	0	32868	27888	33216	52480	33218	
1118	0	32848	27904	33240	52464	33032	
1119	0	32844	27916	33228	52448	32648	
1120	0	32836	27912	33260	52512	32262	
1121	0	32842	27900	33252	52568	31928	
1122	0	32832	27888	33224	52476	32032	
1123	0	32840	27874	33232	52356	31968	
1124	0	32844	27868	33229	52632	32202	
1125	0	32856	27864	33248	52496	32312	
1126	0	32858	27864	33244	52476	32296	
1127	0	32868	27864	33248	52620	32412	
1128	0	32868	27876	33242	52536	32472	
1129	0	32864	27868	33208	52496	32680	
1130	0	32856	27850	33204	52680	32796	
1131	0	32852	27874	33208	52560	33077	
1132	0	32852	27882	33192	52586	33128	
1133	0	32848	27892	33208	52636	33352	
1134	0	32852	27892	33204	52588	33409	
1135	0	32858	27882	33200	52656	33648	
1136	0	32852	27884	33216	52648	33458	
1137	0	32840	27896	33252	52632	33240	
1138	0	32830	27896	33245	52768	32865	
1139	0	32826	27892	33252	52624	32936	
1140	0	32824	27880	33252	52648	32692	
1141	0	32824	27892	33240	52652	32552	
1142	0	32816	27890	33256	52672	32480	
1143	0	32836	27880	33232	52804	32418	
1144	0	32836	27880	33216	52652	32400	
1145	0	32844	27876	33248	52656	32270	
1146	0	32824	27872	33257	52652	32404	
1147	0	32816	27880	33252	52232	32576	
1148	0	32832	27876	33264	52832	32428	
1149	0	32820	27868	33264	52680	32370	
1150	0	32816	27864	33262	52712	32676	
1151	0	32804	27876	33250	52800	32928	
1152	0	32810	27888	33256	52720	32948	
1153	0	32824	27884	33272	52596	33204	
1154	0	32824	27880	33248	52866	33344	
1155	0	32832	27872	33264	52760	33560	
1156	0	32832	27880	33268	52736	33392	
1157	0	32828	27884	33272	52800	33108	
1158	0	32828	27876	33272	52784	33172	
1159	0	32818	27870	33264	52856	32988	
1160	0	32807	27874	33288	52760	32856	
1161	0	32788	27885	33264	52324	32620	
1162	0	32816	27870	33244	52884	32624	
1163	0	32832	27870	33240	52800	32548	
1164	0	32826	27876	33228	52596	32452	
1165	0	32816	27888	33264	52904	32296	
1166	0	32816	27880	33256	52788	32336	
1167	0	32820	27904	33280	52852	32340	
1168	0	32828	27884	33248	52772	32241	
1169	0	32824	27888	33224	52648	32392	
1170	0	32826	27905	33244	52904	32660	
1171	0	32824	27912	33240	52784	32792	
1172	0	32840	27902	33206	52680	32884	
1173	0	32829	27908	33232	52952	33136	
1174	0	32848	27888	33224	52840	32972	
1175	0	32836	27892	33224	52700	33012	
1176	0	32832	27896	33228	52964	32812	
1177	0	32832	27892	33224	52808	32220	
1178	0	32842	27892	33248	52856	32189	
1179	0	32832	27884	33248	52888	32901	
1180	0	32836	27900	33260	52864	33596	
1181	0	32840	27904	33260	52832	34012	
1182	0	32836	27900	33240	52948	34120	
1183	0	32828	27896	33244	52800	33760	
1184	0	32814	27898	33236	52832	33400	
1185	0	32812	27896	33244	52840	32952	
1186	0	32824	27908	33232	52856	32648	
1187	0	32836	27896	33236	52772	32576	
1188	0	32828	27886	33232	52682	32468	
1189	0	32834	27893	33239	52896	32236	
1190	0	32824	27908	33232	52776	32400	
1191	0	32833	27914	33254	52332	32460	
1192	0	32844	27905	33252	52896	32460	
1193	0	32840	27912	33232	52792	32564	
1194	0	32832	27904	33212	52794	32834	
1195	0	32840	27912	33204	52660	33000	
1196	0	32842	27896	33220	52936	33060	
1197	0	32836	27904	33224	52776	32992	
1198	0	32852	27896	33234	52324	32640	
1199	0	32856	27888	33233	52912	32636	
1200	0	32842	27888	33212	52780	32624	
1201	0	32848	27896	33232	52786	32524	
1202	0	32844	27894	33216	52888	32276	
1203	0	32852	27896	33196	52800	32252	
1204	0	32864	27892	33185	52552	32360	
1205	0	32864	27884	33192	52912	32476	
1206	0	32853	27888	33188	52760	32556	
1207	0	32856	27888	33196	52404	32792	
1208	0	32860	27880	33192	52880	32832	
1209	0	32844	27885	33184	52760	32878	
1210	0	32852	27868	33192	52544	32912	
1211	0	32849	27856	33204	52874	33044	
1212	0	32848	27868	33200	52784	33252	
1213	0	32840	27880	33184	52824	33280	
1214	0	32858	27880	33176	52776	33146	
1215	0	32842	27884	33188	52780	33164	
1216	0	32864	27892	33204	52868	33308	
1217	0	32868	27888	33208	52784	33224	
1218	0	32860	27880	33226	52356	33050	
1219	0	32864	27872	33224	52896	32920	
1220	0	32860	27888	33216	52768	32732	
1221	0	32860	27880	33216	52336	32712	
1222	0	32862	27869	33220	52860	32626	
1223	0	32845	27864	33228	52752	32636	
1224	0	32848	27844	33232	52744	32616	
1225	0	32844	27848	33244	52824	32448	
1226	0	32864	27848	33240	52752	32408	
1227	0	32860	27840	33256	52820	32397	
1228	0	32848	27854	33244	52760	32384	
1229	0	32872	27836	33226	52728	32392	
1230	0	32876	27840	33224	52800	32564	
1231	0	32880	27840	33204	52712	32808	
1232	0	32860	27841	33208	52240	32773	
1233	0	32860	27840	33220	52832	33026	
1234	0	32872	27854	33230	52712	33300	
1235	0	32875	27858	33228	52520	33308	
1236	0	32890	27856	33212	52816	33228	
1237	0	32890	27856	33208	52712	33172	
1238	0	32884	27864	33205	52800	33153	
1239	0	32880	27876	33220	52680	32760	
1240	0	32876	27860	33220	52448	32001	
1241	0	32872	27868	33238	52844	32100	
1242	0	32872	27876	33224	52728	32560	
1243	0	32880	27872	33220	52716	32864	
1244	0	32872	27876	33220	52700	33397	
1245	0	32880	27884	33204	52256	33580	
1246	0	32872	27876	33216	52756	33408	
1247	0	32884	27860	33208	52728	32904	
1248	0	32880	27869	33208	52692	32544	
1249	0	32876	27868	33198	52712	32180	
1250	0	32880	27868	33184	52752	31762	
1251	0	32872	27856	33168	52696	32212	
1252	0	32864	27873	33200	52828	32736	
1253	0	32856	27876	33192	52688	33256	
1254	0	32868	27872	33194	52528	33648	
1255	0	32860	27884	33192	52812	33736	
1256	0	32868	27876	33184	52736	33084	
1257	0	32856	27888	33200	52824	32648	
1258	0	32865	27872	33204	52724	32708	
1259	0	32864	27888	33200	52760	33210	
1260	0	32864	27884	33202	52704	33400	
1261	0	32866	27890	33216	52580	33252	
1262	0	32860	27904	33184	52796	32928	
1263	0	32872	27892	33184	52716	32618	
1264	0	32874	27894	33188	52745	32184	
1265	0	32880	27900	33202	52696	32173	
1266	0	32864	27896	33200	52444	32236	
1267	0	32872	27892	33188	52864	32122	
1268	0	32856	27912	33176	52680	31812	
1269	0	32853	27898	33172	52376	31816	
1270	0	32844	27900	33178	52868	32376	
1271	0	32832	27908	33184	52736	33018	
1272	0	32820	27908	33216	52240	33338	
1273	0	32826	27894	33193	52820	33616	
1274	0	32826	27884	33168	52744	33820	
1275	0	32826	27889	33176	52300	33901	
1276	0	32836	27888	33192	52832	33784	
1277	0	32852	27884	33196	52756	33524	
1278	0	32840	27881	33199	52744	33224	
1279	0	32836	27880	33196	52752	33036	
1280	0	32844	27864	33200	52760	32834	
1281	0	32848	27862	33172	52736	32302	
1282	0	32828	27858	33168	52840	32268	
1283	0	32824	27876	33168	52712	32220	
1284	0	32828	27882	33164	52600	32040	
1285	0	32848	27870	33176	52840	32068	
1286	0	32836	27864	33188	52688	32180	
1287	0	32828	27860	33200	52228	32384	
1288	0	32836	27860	33204	52840	32392	
1289	0	32840	27861	33200	52672	32324	
1290	0	32821	27872	33178	52648	32616	
1291	0	32832	27880	33196	52784	32908	
1292	0	32840	27880	33208	52720	33050	
1293	0	32840	27890	33192	52692	33040	
1294	0	32848	27885	33170	52832	33276	
1295	0	32848	27884	33200	52750	33486	
1296	0	32856	27892	33204	52496	33504	
1297	0	32852	27889	33216	52872	33056	
1298	0	32852	27888	33218	52728	33192	
1299	0	32854	27886	33216	52760	33084	
1300	0	32866	27888	33216	52808	32796	
1301	0	32856	27888	33216	52716	32750	
1302	0	32856	27876	33241	52472	32676	
1303	0	32868	27876	33236	52812	32572	
1304	0	32864	27864	33228	52674	32341	
1305	0	32876	27852	33240	52336	32408	
1306	0	32864	27868	33248	52808	32426	
1307	0	32852	27869	33265	52664	32372	
1308	0	32856	27876	33256	52632	32480	
1309	0	32856	27874	33244	52708	32400	
1310	0	32856	27882	33248	52196	32600	
1311	0	32864	27880	33244	52776	32730	
1312	0	32880	27865	33236	52668	32776	
1313	0	32878	27864	33244	52748	32880	
1314	0	32878	27866	33224	52632	33160	
1315	0	32874	27880	33228	52664	33232	
1316	0	32858	27866	33232	52616	33512	
1317	0	32860	27872	33205	52360	33554	
1318	0	32860	27880	33212	52628	33444	
1319	0	32860	27892	33220	52168	33144	
1320	0	32860	27888	33204	52592	33120	
1321	0	32888	27892	33216	52644	32904	
1322	0	32872	27872	33220	52584	32816	
1323	0	32872	27872	33220	52528	32656	
1324	0	32876	27868	33216	52564	32568	
1325	0	32868	27880	33224	52560	32388	
1326	0	32860	27868	33220	52560	32128	
1327	0	32860	27880	33220	52522	32408	
1328	0	32860	27872	33204	52540	31968	
1329	0	32860	27868	33204	52552	31324	
1330	0	32856	27880	33204	52656	31980	
1331	0	32848	27874	33204	52520	32896	
1332	0	32848	27888	33196	52608	33584	
1333	0	32854	27892	33200	52528	34104	
1334	0	32860	27888	33208	52480	34036	
1335	0	32864	27880	33232	52548	33930	
1336	0	32888	27872	33218	52536	33516	
1337	0	32876	27896	33236	52608	33240	
1338	0	32882	27888	33216	52520	33088	
1339	0	32880	27904	33236	52148	32968	
1340	0	32876	27896	33216	52664	32744	
1341	0	32876	27897	33204	52512	32308	
1342	0	32866	27904	33228	52304	32332	
1343	0	32872	27900	33252	52648	32340	
1344	0	32868	27896	33252	52496	32212	
1345	0	32868	27886	33245	52500	32286	
1346	0	32876	27874	33228	52496	32428	
1347	0	32856	27888	33236	52280	32404	
1348	0	32864	27904	33224	52616	32432	
1349	0	32872	27898	33236	52496	32388	
1350	0	32872	27904	33220	52584	32496	
1351	0	32876	27900	33220	52496	32784	
1352	0	32869	27904	33236	52384	32964	
1353	0	32856	27896	33228	52640	33016	
1354	0	32856	27888	33220	52520	33180	
1355	0	32860	27888	33234	52640	33224	
1356	0	32860	27890	33224	52512	33312	
1357	0	32852	27889	33224	52536	33140	
1358	0	32860	27892	33218	52524	33180	
1359	0	32860	27894	33240	52356	33160	
1360	0	32868	27900	33248	52640	32980	
1361	0	32872	27892	33264	52528	32928	
1362	0	32884	27886	33264	52528	32842	
1363	0	32876	27884	33269	52612	32776	
1364	0	32874	27877	33242	52528	32612	
1365	0	32876	27880	33216	52576	32372	
1366	0	32866	27860	33220	52508	31756	
1367	0	32864	27876	33232	52224	31960	
1368	0	32872	27872	33232	52608	32280	
1369	0	32864	27892	33256	52512	32816	
1370	0	32872	27896	33264	52544	33242	
1371	0	32868	27892	33238	52528	33208	
1372	0	32865	27888	33244	52522	32984	
1373	0	32872	27874	33240	52596	32716	
1374	0	32872	27876	33216	52500	32768	
1375	0	32856	27890	33232	52464	32920	
1376	0	32872	27893	33236	52520	33396	
1377	0	32868	27892	33224	52428	33624	
1378	0	32876	27882	33224	52660	33448	
1379	0	32880	27868	33242	52516	33260	
1380	0	32877	27876	33252	52480	33204	
1381	0	32864	27896	33229	52632	33202	
1382	0	32872	27890	33233	52512	32908	
1383	0	32868	27880	33236	52536	32688	
1384	0	32872	27889	33216	52496	32402	
1385	0	32868	27896	33186	52372	32041	
1386	0	32872	27892	33188	52540	31522	
1387	0	32870	27882	33192	52472	31544	
1388	0	32868	27874	33182	52512	32041	
1389	0	32858	27872	33196	52548	32456	
1390	0	32856	27876	33216	52476	33224	
1391	0	32858	27880	33216	52552	33584	
1392	0	32852	27896	33220	52408	33552	
1393	0	32848	27896	33208	52410	33444	
1394	0	32864	27880	33198	52544	33292	
1395	0	32850	27892	33212	52440	32640	
1396	0	32848	27888	33208	52528	31832	
1397	0	32852	27900	33192	52392	32496	
1398	0	32864	27908	33188	52112	33128	
1399	0	32868	27900	33192	52488	33608	
1400	0	32876	27900	33194	52426	33712	
1401	0	32864	27908	33208	52464	33584	
1402	0	32858	27912	33192	52460	33392	
1403	0	32864	27912	33189	52420	33024	
1404	0	32876	27908	33176	52460	32904	
1405	0	32884	27912	33168	52392	32664	
1406	0	32888	27904	33162	52088	32460	
1407	0	32872	27905	33164	52488	32104	
1408	0	32864	27913	33176	52344	31856	
1409	0	32848	27916	33184	52280	31861	
1410	0	32865	27893	33194	52386	32028	
1411	0	32860	27892	33204	52368	32628	
1412	0	32856	27888	33185	52496	32864	
1413	0	32852	27904	33164	52376	32896	
1414	0	32874	27904	33180	52488	33124	
1415	0	32880	27893	33168	52364	33320	
1416	0	32866	27892	33176	52404	33424	
1417	0	32858	27892	33185	52356	33210	
1418	0	32860	27894	33220	52344	33188	
1419	0	32856	27896	33236	52384	33032	
1420	0	32860	27896	33224	52416	32760	
1421	0	32848	27882	33218	52492	32696	
1422	0	32848	27884	33240	52364	32668	
1423	0	32860	27888	33216	52368	32596	
1424	0	32864	27884	33188	52416	32432	
1425	0	32864	27892	33172	52400	32296	
1426	0	32864	27880	33176	52488	32424	
1427	0	32874	27872	33196	52416	32584	
1428	0	32876	27868	33224	51904	32528	
1429	0	32868	27856	33232	52536	32444	
1430	0	32856	27872	33240	52464	32468	
1431	0	32860	27872	33228	52456	32820	
1432	0	32868	27864	33212	52576	33009	
1433	0	32872	27858	33228	52448	32952	
1434	0	32864	27864	33216	52536	33280	
1435	0	32872	27864	33204	52468	33448	
1436	0	32860	27852	33196	52492	33504	
1437	0	32872	27852	33200	52554	33284	
1438	0	32866	27864	33220	52528	33264	
1439	0	32868	27852	33232	52500	33096	
1440	0	32873	27864	33229	52616	32832	
1441	0	32872	27869	33240	52456	32744	
1442	0	32858	27856	33236	52392	32688	
1443	0	32864	27856	33216	52600	32450	
1444	0	32856	27857	33224	52500	32420	
1445	0	32864	27856	33188	52608	32380	
1446	0	32876	27852	33192	52492	32464	
1447	0	32884	27864	33192	52472	32404	
1448	0	32876	27872	33220	52512	32440	
1449	0	32882	27864	33204	52188	32516	
1450	0	32860	27884	33204	52660	32548	
1451	0	32860	27880	33184	52536	32664	
1452	0	32860	27888	33180	52597	32782	
1453	0	32856	27884	33197	52534	33162	
1454	0	32860	27884	33224	52280	33392	
1455	0	32868	27876	33192	52656	33448	
1456	0	32877	27888	33210	52568	33408	
1457	0	32890	27888	33210	52536	33034	
1458	0	32880	27876	33224	52576	32512	
1459	0	32900	27880	33201	52068	32488	
1460	0	32898	27868	33188	52696	32632	
1461	0	32892	27876	33180	52528	32808	
1462	0	32876	27876	33182	52149	32424	
1463	0	32880	27872	33212	52688	32384	
1464	0	32880	27890	33218	52540	32704	
1465	0	32880	27898	33220	52360	33093	
1466	0	32876	27886	33224	52688	33400	
1467	0	32868	27892	33226	52528	33540	
1468	0	32868	27896	33204	52436	32904	
1469	0	32876	27900	33212	52664	32346	
1470	0	32876	27898	33204	52532	32304	
1471	0	32881	27904	33196	52408	32289	
1472	0	32888	27892	33212	52664	33072	
1473	0	32884	27896	33220	52560	33488	
1474	0	32884	27908	33216	52392	33570	
1475	0	32868	27922	33200	52684	33349	
1476	0	32876	27904	33216	52556	33468	
1477	0	32868	27904	33176	52672	33176	
1478	0	32872	27904	33196	52568	32964	
1479	0	32866	27908	33180	52632	32868	
1480	0	32864	27905	33188	52552	32568	
1481	0	32856	27908	33204	52120	32276	
1482	0	32856	27912	33200	52692	32072	
1483	0	32853	27916	33208	52564	31476	
1484	0	32848	27908	33196	52664	30912	
1485	0	32832	27912	33196	52560	31412	
1486	0	32840	27914	33208	52572	32144	
1487	0	32860	27912	33224	52672	32842	
1488	0	32848	27898	33194	52608	33468	
1489	0	32849	27886	33188	52672	33596	
1490	0	32832	27893	33172	52568	33432	
1491	0	32840	27888	33180	52484	33568	
1492	0	32848	27896	33180	52712	33692	
1493	0	32840	27896	33188	52616	33570	
1494	0	32852	27884	33208	52672	33744	
1495	0	32842	27890	33198	52632	33656	
1496	0	32840	27890	33218	52192	33364	
1497	0	32840	27904	33208	52720	33096	
1498	0	32856	27894	33212	52642	32716	
1499	0	32856	27892	33212	52704	32636	
1500	0	32845	27898	33226	52612	32457	
1501	0	32834	27900	33224	52608	32316	
1502	0	32844	27888	33209	52688	32244	
1503	0	32836	27896	33210	52554	32278	
1504	0	32829	27904	33198	52668	32312	
1505	0	32842	27892	33184	52552	32194	
1506	0	32836	27898	33208	52728	32280	
1507	0	32848	27904	33224	52696	32300	
1508	0	32840	27893	33210	52816	32480	
1509	0	32844	27888	33218	52716	32376	
1510	0	32852	27876	33202	52816	32616	
1511	0	32852	27874	33216	52692	32794	
1512	0	32842	27884	33216	52820	32914	
1513	0	32860	27892	33208	52720	33024	
1514	0	32850	27884	33208	52856	33202	
1515	0	32860	27870	33216	52752	33290	
1516	0	32857	27872	33217	52792	33444	
1517	0	32850	27874	33228	52744	33400	
1518	0	32860	27869	33221	52696	33342	
1519	0	32869	27884	33224	52768	33060	
1520	0	32864	27896	33200	52296	32960	
1521	0	32872	27896	33188	52900	32848	
1522	0	32856	27884	33188	52756	32506	
1523	0	32864	27888	33204	52860	32528	
1524	0	32880	27888	33188	52740	32476	
1525	0	32864	27896	33196	52820	32424	
1526	0	32860	27889	33204	52756	32409	
1527	0	32860	27896	33213	52636	32452	
1528	0	32864	27894	33188	52868	32360	
1529	0	32880	27888	33184	52752	32388	
1530	0	32872	27890	33216	52816	32656	
1531	0	32856	27896	33212	52800	32808	
1532	0	32864	27884	33216	52776	33116	
1533	0	32862	27880	33192	52840	33074	
1534	0	32856	27880	33192	52352	33096	
1535	0	32856	27880	33184	52920	33284	
1536	0	32856	27880	33188	52808	33352	
1537	0	32864	27880	33160	52924	33254	
1538	0	32848	27888	33184	52804	33172	
1539	0	32858	27896	33200	52824	33040	
1540	0	32864	27892	33185	52816	32832	
1541	0	32872	27880	33190	52704	32661	
1542	0	32860	27888	33198	52960	32720	
1543	0	32852	27888	33180	52864	32560	
1544	0	32860	27886	33192	52948	32332	
1545	0	32868	27890	33184	52824	32357	
1546	0	32872	27880	33180	52745	32424	
1547	0	32868	27876	33152	52956	32536	
1548	0	32860	27884	33166	52864	32442	
1549	0	32864	27872	33161	52952	32532	
1550	0	32852	27890	33156	52864	32608	
1551	0	32842	27892	33166	52924	32716	
1552	0	32852	27892	33148	52852	32890	
1553	0	32860	27892	33140	52848	33120	
1554	0	32866	27880	33156	52892	33154	
1555	0	32868	27877	33168	52632	33392	
1556	0	32864	27884	33180	52980	33432	
1557	0	32872	27880	33180	52912	33380	
1558	0	32868	27886	33184	53012	33076	
1559	0	32874	27882	33188	52916	33020	
1560	0	32864	27884	33208	52916	32920	
1561	0	32876	27880	33184	52920	32608	
1562	0	32880	27884	33176	52580	32564	
1563	0	32880	27888	33184	53058	32564	
1564	0	32873	27864	33180	52922	32536	
1565	0	32868	27880	33172	52996	32268	
1566	0	32868	27876	33176	52936	32192	
1567	0	32864	27876	33172	52520	32034	
1568	0	32864	27876	33168	53066	32012	
1569	0	32864	27880	33160	52912	32164	
1570	0	32860	27880	33160	52680	32656	
1571	0	32868	27896	33160	53064	32776	
1572	0	32864	27892	33164	52904	32420	
1573	0	32868	27888	33176	52916	32720	
1574	0	32876	27872	33168	53020	33564	
1575	0	32876	27880	33176	52992	34296	
1576	0	32872	27898	33193	53096	34082	
1577	0	32868	27900	33194	52952	33754	
1578	0	32876	27888	33184	52996	33588	
1579	0	32868	27892	33184	52964	33397	
1580	0	32864	27892	33180	52752	33340	
1581	0	32864	27890	33184	53092	33328	
1582	0	32872	27892	33168	52984	32484	
1583	0	32872	27890	33200	53096	31776	
1584	0	32864	27892	33204	52972	31588	
1585	0	32876	27888	33184	52976	32168	
1586	0	32868	27872	33172	53000	32808	
1587	0	32872	27873	33190	52994	33124	
1588	0	32868	27884	33176	53008	32620	
1589	0	32865	27888	33194	53040	32180	
1590	0	32868	27884	33214	53000	32132	
1591	0	32864	27892	33204	53124	32580	
1592	0	32876	27896	33192	52968	33124	
1593	0	32878	27888	33184	52712	32978	
1594	0	32876	27882	33180	53128	33202	
1595	0	32868	27884	33164	53008	33312	
1596	0	32866	27892	33148	53016	33168	
1597	0	32860	27889	33140	53076	33052	
1598	0	32860	27900	33156	52600	33128	
1599	0	32856	27896	33153	53140	33084	
1600	0	32856	27888	33156	53036	33016	
1601	0	32856	27892	33165	52816	32760	
1602	0	32840	27898	33194	53164	32784	
1603	0	32832	27896	33208	53024	32730	
1604	0	32844	27904	33192	52784	32648	
1605	0	32848	27896	33196	53176	32340	
1606	0	32840	27886	33184	53064	32420	
1607	0	32832	27900	33192	53084	32292	
1608	0	32824	27904	33196	53080	32268	
1609	0	32824	27896	33168	53208	32218	
1610	0	32820	27904	33172	53056	32360	
1611	0	32826	27896	33168	53080	32696	
1612	0	32841	27884	33160	53076	32840	
1613	0	32844	27888	33156	53216	33016	
1614	0	32840	27896	33152	53076	33029	
1615	0	32828	27892	33173	52928	33328	
1616	0	32844	27892	33192	53220	33426	
1617	0	32849	27888	33156	53084	33392	
1618	0	32842	27872	33150	52740	33120	
1619	0	32844	27876	33172	53176	33048	
1620	0	32842	27888	33160	53120	33080	
1621	0	32824	27896	33160	53096	32800	
1622	0	32836	27892	33156	52904	32756	
1623	0	32828	27880	33140	53216	32588	
1624	0	32832	27888	33152	53104	32352	
1625	0	32828	27884	33168	53108	32436	
1626	0	32848	27888	33172	53048	32404	
1627	0	32840	27880	33180	53256	32420	
1628	0	32841	27880	33168	53096	32260	
1629	0	32856	27872	33168	53034	32452	
1630	0	32848	27872	33180	53260	32604	
1631	0	32844	27865	33176	53136	32774	
1632	0	32844	27880	33172	52928	32856	
1633	0	32824	27888	33153	53248	33116	
1634	0	32852	27872	33152	53192	33364	
1635	0	32848	27876	33152	53268	33392	
1636	0	32872	27888	33152	53144	33332	
1637	0	32872	27877	33160	52772	33412	
1638	0	32864	27880	33160	53324	33260	
1639	0	32864	27884	33168	53184	33036	
1640	0	32872	27892	33200	53160	32836	
1641	0	32866	27880	33188	53312	32748	
1642	0	32860	27880	33154	53202	32686	
1643	0	32853	27882	33144	52796	32444	
1644	0	32856	27880	33136	53320	32448	
1645	0	32876	27867	33132	53208	32384	
1646	0	32872	27868	33139	53080	32372	
1647	0	32868	27874	33140	53332	32396	
1648	0	32872	27872	33148	53208	32356	
1649	0	32872	27872	33157	53264	32441	
1650	0	32856	27872	33168	53184	32616	
1651	0	32868	27872	33176	53120	32692	
1652	0	32872	27861	33164	53328	32916	
1653	0	32874	27858	33176	53192	32732	
1654	0	32876	27866	33188	53240	32616	
1655	0	32874	27872	33180	53232	33009	
1656	0	32888	27864	33164	53232	33335	
1657	0	32888	27876	33144	53332	33576	
1658	0	32888	27880	33156	53200	33440	
1659	0	32872	27880	33184	53064	32721	
1660	0	32876	27884	33176	53304	32698	
1661	0	32864	27880	33166	53232	33012	
1662	0	32865	27880	33180	53300	33320	
1663	0	32864	27868	33188	53232	33880	
1664	0	32864	27876	33173	53224	33584	
1665	0	32880	27888	33160	53320	32968	
1666	0	32872	27890	33168	53184	32466	
1667	0	32876	27888	33184	53160	32018	
1668	0	32874	27888	33188	53280	31938	
1669	0	32860	27888	33176	53220	31876	
1670	0	32868	27892	33176	53268	32160	
1671	0	32856	27896	33196	53204	32400	
1672	0	32864	27906	33204	52736	32508	
1673	0	32865	27900	33200	53348	32776	
1674	0	32876	27894	33204	53228	33016	
1675	0	32868	27898	33212	53344	33008	
1676	0	32864	27896	33212	53232	33176	
1677	0	32864	27892	33204	53304	33016	
1678	0	32872	27884	33192	53284	32176	
1679	0	32866	27888	33160	53248	32528	
1680	0	32860	27896	33168	53178	32924	
1681	0	32858	27898	33184	53328	33288	
1682	0	32856	27896	33170	53238	33432	
1683	0	32876	27888	33182	53308	33600	
1684	0	32868	27889	33176	53264	33264	
1685	0	32868	27884	33180	53232	32768	
1686	0	32868	27880	33160	53264	32224	
1687	0	32864	27876	33152	53264	31788	
1688	0	32848	27884	33152	52792	32056	
1689	0	32852	27894	33160	53352	32276	
1690	0	32864	27896	33160	53228	32896	
1691	0	32864	27904	33172	53088	33260	
1692	0	32876	27896	33152	53392	33300	
1693	0	32862	27896	33156	53244	33264	
1694	0	32868	27904	33180	53136	33436	
1695	0	32868	27904	33192	53408	33560	
1696	0	32864	27904	33184	53272	33456	
1697	0	32864	27896	33198	52792	33424	
1698	0	32872	27892	33188	53416	32946	
1699	0	32876	27890	33184	53280	32604	
1700	0	32872	27880	33170	53352	32464	
1701	0	32864	27884	33172	53288	32404	
1702	0	32864	27884	33158	53114	32452	
1703	0	32872	27880	33176	53428	32242	
1704	0	32864	27876	33184	53296	32300	
1705	0	32856	27884	33192	53224	32380	
1706	0	32856	27876	33208	53384	32349	
1707	0	32856	27880	33188	53320	32282	
1708	0	32848	27878	33168	53413	32432	
1709	0	32864	27860	33168	53288	32506	
1710	0	32866	27872	33164	53160	32424	
1711	0	32858	27861	33188	53432	32794	
1712	0	32844	27876	33188	53288	32996	
1713	0	32858	27880	33162	53314	33088	
1714	0	32848	27876	33176	53352	33288	
1715	0	32840	27884	33193	53400	33462	
1716	0	32852	27880	33204	53316	33584	
1717	0	32852	27880	33194	53464	33224	
1718	0	32848	27888	33200	53352	33192	
1719	0	32864	27892	33184	53384	33092	
1720	0	32868	27880	33188	53460	32804	
1721	0	32860	27884	33172	53360	32736	
1722	0	32864	27888	33176	53312	32632	
1723	0	32873	27874	33184	53436	32308	
1724	0	32872	27873	33192	52856	32370	
1725	0	32856	27884	33196	53424	32418	
1726	0	32856	27896	33204	53348	32224	
1727	0	32868	27884	33196	53472	32464	
1728	0	32868	27884	33176	53336	32616	
1729	0	32858	27892	33184	53292	32464	
1730	0	32856	27900	33184	53457	32560	
1731	0	32856	27893	33188	53336	32840	
1732	0	32856	27890	33176	53260	33112	
1733	0	32860	27892	33172	53520	33072	
1734	0	32876	27892	33180	53392	33256	
1735	0	32872	27892	33172	53428	33376	
1736	0	32872	27896	33162	53380	33344	
1737	0	32876	27898	33184	53380	33088	
1738	0	32874	27908	33188	53466	33020	
1739	0	32866	27910	33200	53384	32922	
1740	0	32860	27897	33200	52984	32256	
1741	0	32860	27900	33200	53472	31968	
1742	0	32856	27906	33184	53360	31536	
1743	0	32872	27904	33176	53208	31512	
1744	0	32872	27906	33172	53476	32064	
1745	0	32868	27908	33194	53372	33050	
1746	0	32868	27896	33208	53392	33772	
1747	0	32848	27904	33208	53368	33928	
1748	0	32856	27904	33176	52968	33872	
1749	0	32856	27900	33180	53472	33626	
1750	0	32860	27904	33184	53368	33416	
1751	0	32876	27908	33180	53424	33282	
1752	0	32892	27890	33156	53472	33384	
1753	0	32877	27894	33176	53392	33028	
1754	0	32880	27893	33178	53368	32800	
1755	0	32874	27890	33196	53484	32656	
1756	0	32876	27900	33200	53396	32796	
1757	0	32876	27902	33188	53536	32756	
1758	0	32880	27896	33204	53376	32644	
1759	0	32868	27900	33184	53160	32528	
1760	0	32872	27904	33196	53520	32544	
1761	0	32874	27896	33164	53408	32576	
1762	0	32880	27884	33152	53368	32464	
1763	0	32868	27896	33172	53508	32512	
1764	0	32872	27900	33192	53380	32504	
1765	0	32864	27912	33192	53472	32416	
1766	0	32864	27916	33184	53364	32320	
1767	0	32858	27892	33168	53108	32384	
1768	0	32856	27896	33180	53544	32372	
1769	0	32846	27900	33158	53388	32364	
1770	0	32852	27896	33178	53420	32592	
1771	0	32868	27888	33168	53392	32820	
1772	0	32856	27890	33168	53312	32929	
1773	0	32870	27882	33196	53456	33092	
1774	0	32860	27882	33184	53442	33308	
1775	0	32848	27889	33189	53528	33498	
1776	0	32848	27888	33184	53448	33492	
1777	0	32848	27880	33198	53360	33176	
1778	0	32852	27892	33188	53566	33084	
1779	0	32844	27892	33176	53452	33004	
1780	0	32840	27900	33168	53492	32842	
1781	0	32848	27888	33152	53544	32525	
1782	0	32842	27892	33162	53448	32584	
1783	0	32844	27888	33178	53420	32496	
1784	0	32840	27896	33172	53564	32488	
1785	0	32856	27888	33184	53432	32426	
1786	0	32840	27888	33208	53496	32306	
1787	0	32844	27880	33206	53432	32474	
1788	0	32840	27872	33192	52964	32472	
1789	0	32832	27874	33180	53560	32512	
1790	0	32834	27880	33176	53432	32392	
1791	0	32848	27876	33162	53364	32852	
1792	0	32852	27876	33140	53536	33120	
1793	0	32862	27873	33168	53512	33106	
1794	0	32852	27888	33158	53560	32552	
1795	0	32856	27876	33153	53512	32588	
1796	0	32840	27868	33172	53512	32216	
1797	0	32844	27864	33160	53636	32760	
1798	0	32836	27884	33156	53512	33316	
1799	0	32836	27884	33162	53328	34180	
1800	0	32840	27884	33168	53604	34412	
1801	0	32854	27872	33161	53536	33916	
1802	0	32848	27872	33168	53626	33402	
1803	0	32848	27868	33176	53528	32926	
1804	0	32840	27880	33164	53600	32512	
1805	0	32852	27876	33160	53504	32592	
1806	0	32848	27876	33161	53396	32688	
1807	0	32848	27884	33150	53624	32632	
1808	0	32848	27880	33140	53546	32240	
1809	0	32848	27884	33148	53548	31948	
1810	0	32840	27886	33144	53564	31960	
1811	0	32840	27888	33148	53544	32200	
1812	0	32840	27880	33140	53636	32512	
1813	0	32828	27889	33152	53524	32700	
1814	0	32824	27889	33132	53404	32800	
1815	0	32836	27888	33130	53676	33198	
1816	0	32848	27876	33104	53538	32936	
1817	0	32840	27888	33128	53380	32709	
1818	0	32848	27880	33152	53712	32708	
1819	0	32856	27884	33152	53552	33144	
1820	0	32852	27868	33168	53144	33238	
1821	0	32852	27856	33162	53666	33248	
1822	0	32840	27866	33160	53588	33092	
1823	0	32856	27870	33152	53580	32960	
1824	0	32860	27864	33144	53424	32906	
1825	0	32844	27876	33152	53680	32874	
1826	0	32840	27884	33140	53556	32690	
1827	0	32860	27876	33148	53576	32440	
1828	0	32857	27888	33174	53472	32208	
1829	0	32844	27884	33176	53672	31440	
1830	0	32848	27884	33172	53524	31624	
1831	0	32840	27888	33184	53584	32338	
1832	0	32848	27880	33170	53668	33024	
1833	0	32852	27884	33164	53544	33688	
1834	0	32844	27886	33150	53428	33864	
1835	0	32848	27892	33152	53660	34038	
1836	0	32852	27908	33156	53576	33813	
1837	0	32836	27906	33148	53400	33464	
1838	0	32840	27916	33136	53704	33160	
1839	0	32856	27900	33148	53576	33104	
1840	0	32853	27900	33161	53368	32780	
1841	0	32848	27904	33184	53752	32492	
1842	0	32844	27898	33184	53616	32258	
1843	0	32852	27884	33184	53588	32384	
1844	0	32860	27884	33176	53520	32296	
1845	0	32864	27877	33164	53700	32328	
1846	0	32860	27880	33144	53616	32328	
1847	0	32844	27888	33140	53568	32188	
1848	0	32832	27886	33129	53632	32276	
1849	0	32840	27886	33140	53688	32480	
1850	0	32840	27880	33138	53540	32608	
1851	0	32844	27888	33160	53516	32924	
1852	0	32856	27896	33160	53704	33032	
1853	0	32853	27890	33184	53572	33196	
1854	0	32849	27888	33184	53632	33242	
1855	0	32852	27896	33172	53672	33348	
1856	0	32856	27884	33170	53580	33418	
1857	0	32864	27882	33182	53576	33448	
1858	0	32858	27900	33170	53616	33292	
1859	0	32860	27900	33148	53612	33088	
1860	0	32848	27908	33144	53564	32788	
1861	0	32852	27916	33140	53708	32578	
1862	0	32844	27904	33140	53560	32352	
1863	0	32858	27889	33160	53112	32520	
1864	0	32844	27892	33152	53672	32552	
1865	0	32856	27892	33172	53556	32520	
1866	0	32848	27884	33160	53592	32564	
1867	0	32838	27896	33168	53556	32496	
1868	0	32834	27888	33144	53704	32388	
1869	0	32831	27872	33148	53568	32346	
1870	0	32840	27880	33148	53100	32496	
1871	0	32836	27880	33140	53640	32776	
1872	0	32828	27898	33152	53616	32936	
1873	0	32840	27896	33148	53584	33092	
1874	0	32844	27890	33124	53448	33302	
1875	0	32848	27888	33144	53688	33269	
1876	0	32845	27880	33160	53568	33228	
1877	0	32845	27896	33184	53632	33396	
1878	0	32848	27882	33180	53732	33244	
1879	0	32856	27892	33168	53560	33188	
1880	0	32844	27892	33160	53344	33004	
1881	0	32828	27885	33176	53704	32624	
1882	0	32834	27893	33176	53564	32604	
1883	0	32848	27888	33168	53384	32509	
1884	0	32850	27884	33148	53700	32520	
1885	0	32852	27896	33144	53604	32308	
1886	0	32864	27888	33156	53576	32282	
1887	0	32852	27877	33176	53510	32412	
1888	0	32848	27880	33176	53672	32440	
1889	0	32842	27880	33192	53568	32320	
1890	0	32840	27868	33184	53536	32492	
1891	0	32849	27884	33172	53676	32800	
1892	0	32832	27888	33157	53600	33050	
1893	0	32832	27896	33156	53354	33012	
1894	0	32840	27888	33152	53720	33232	
1895	0	32840	27872	33162	53580	33457	
1896	0	32844	27872	33154	53584	33450	
1897	0	32852	27872	33172	53656	33108	
1898	0	32856	27866	33184	53264	32904	
1899	0	32852	27884	33188	53656	32898	
1900	0	32836	27892	33180	53608	32692	
1901	0	32840	27902	33196	53712	31664	
1902	0	32848	27891	33180	53584	31348	
1903	0	32852	27896	33156	53626	31404	
1904	0	32852	27888	33166	53584	32272	
1905	0	32856	27896	33154	53484	33200	
1906	0	32852	27896	33148	53616	34272	
1907	0	32844	27900	33168	53592	34444	
1908	0	32852	27892	33184	53652	33924	
1909	0	32848	27876	33168	53584	33256	
1910	0	32848	27892	33140	53460	33036	
1911	0	32848	27904	33140	53696	32280	
1912	0	32853	27897	33152	53584	32316	
1913	0	32844	27896	33168	53668	32668	
1914	0	32848	27898	33170	53568	33024	
1915	0	32852	27912	33176	53656	33333	
1916	0	32860	27908	33172	53568	33546	
1917	0	32868	27888	33178	53560	33312	
1918	0	32868	27893	33178	53664	33082	
1919	0	32868	27904	33180	53624	32884	
1920	0	32869	27920	33168	53552	32740	
1921	0	32872	27912	33164	53754	32608	
1922	0	32860	27912	33168	53601	32504	
1923	0	32856	27904	33192	53648	32299	
1924	0	32852	27892	33200	53592	32036	
1925	0	32864	27882	33176	53616	32145	
1926	0	32858	27892	33176	53708	32113	
1927	0	32844	27900	33168	53648	32165	
1928	0	32836	27904	33168	53624	32240	
1929	0	32836	27900	33164	53708	32338	
1930	0	32844	27908	33160	53584	32609	
1931	0	32844	27896	33164	53500	32758	
1932	0	32856	27884	33168	53648	33024	
1933	0	32856	27888	33178	53632	33092	
1934	0	32860	27888	33189	53756	33164	
1935	0	32856	27882	33184	53632	33516	
1936	0	32852	27889	33181	53528	33596	
1937	0	32852	27888	33168	53768	33300	
1938	0	32848	27888	33137	53672	33157	
1939	0	32848	27888	33144	53728	33072	
1940	0	32864	27883	33160	53640	32976	
1941	0	32864	27890	33164	53180	32708	
1942	0	32856	27893	33168	53740	32548	
1943	0	32840	27880	33170	53624	32564	
1944	0	32840	27884	33176	53412	32440	
1945	0	32840	27884	33164	53804	32240	
1946	0	32848	27890	33160	53632	32184	
1947	0	32848	27884	33160	53432	32388	
1948	0	32852	27898	33160	53808	32488	
1949	0	32844	27900	33160	53624	32474	
1950	0	32850	27888	33180	53520	32404	
1951	0	32864	27880	33176	53780	32736	
1952	0	32868	27873	33169	53658	33030	
1953	0	32864	27872	33200	53688	33156	
1954	0	32856	27884	33212	53736	33360	
1955	0	32852	27896	33196	53644	33340	
1956	0	32848	27900	33188	53312	33540	
1957	0	32832	27904	33168	53800	33482	
1958	0	32844	27897	33164	53668	33272	
1959	0	32850	27892	33152	53616	33066	
1960	0	32848	27896	33157	53800	32728	
1961	0	32852	27888	33169	53658	32714	
1962	0	32860	27884	33176	53680	32628	
1963	0	32858	27888	33180	53632	32628	
1964	0	32858	27892	33170	53808	32466	
1965	0	32856	27864	33144	53648	32336	
1966	0	32852	27872	33144	53448	32460	
1967	0	32850	27884	33148	53792	32592	
1968	0	32850	27889	33140	53640	32696	
1969	0	32842	27896	33132	53604	32624	
1970	0	32848	27892	33144	53772	32490	
1971	0	32856	27886	33144	53684	32848	
1972	0	32848	27892	33124	53544	32960	
1973	0	32856	27890	33128	53781	33032	
1974	0	32840	27888	33128	53656	32968	
1975	0	32844	27880	33172	53656	33084	
1976	0	32840	27881	33172	53638	33300	
1977	0	32840	27888	33192	53792	33256	
1978	0	32836	27888	33180	53674	33092	
1979	0	32836	27878	33168	53576	32780	
1980	0	32836	27888	33180	53816	32640	
1981	0	32840	27892	33178	53672	32484	
1982	0	32836	27897	33152	53736	32536	
1983	0	32824	27884	33140	53792	32648	
1984	0	32834	27888	33128	53680	32234	
1985	0	32832	27880	33128	53224	31984	
1986	0	32832	27886	33140	53780	31984	
1987	0	32830	27884	33156	53760	32312	
1988	0	32832	27900	33184	53688	32708	
1989	0	32832	27892	33168	53688	32900	
1990	0	32816	27880	33168	53692	32865	
1991	0	32828	27890	33162	53818	33132	
1992	0	32824	27884	33168	53672	32657	
1993	0	32848	27884	33172	53288	32936	
1994	0	32840	27884	33176	53784	33672	
1995	0	32836	27880	33184	53728	34328	
1996	0	32834	27882	33144	53704	34824	
1997	0	32836	27896	33144	53592	34384	
1998	0	32833	27884	33144	53824	33656	
1999	0	32832	27900	33128	53696	33204	
2000	0	32828	27900	33122	53224	32668	
2001	0	32834	27896	33148	53808	32396	
2002	0	32842	27896	33136	53722	32290	
2003	0	32840	27908	33148	53712	32124	
2004	0	32844	27888	33132	53734	32032	
2005	0	32844	27884	33140	53836	31880	
2006	0	32832	27896	33132	53700	31840	
2007	0	32828	27888	33154	53368	31936	
2008	0	32820	27898	33160	53808	32184	
2009	0	32830	27888	33164	53748	32192	
2010	0	32828	27888	33170	53700	32386	
2011	0	32824	27888	33168	53704	32680	
2012	0	32844	27880	33192	53762	32848	
2013	0	32848	27868	33164	53844	32332	
2014	0	32840	27874	33168	53728	32356	
2015	0	32852	27872	33164	53728	32904	
2016	0	32840	27888	33168	53656	33528	
2017	0	32834	27888	33172	53844	33904	
2018	0	32840	27888	33164	53704	33976	
2019	0	32840	27888	33161	53308	33860	
2020	0	32848	27892	33172	53844	33624	
2021	0	32849	27896	33156	53720	33064	
2022	0	32872	27897	33176	53728	32736	
2023	0	32864	27890	33184	53848	32596	
2024	0	32844	27892	33188	53672	32364	
2025	0	32852	27898	33172	53364	32322	
2026	0	32840	27896	33172	53852	32152	
2027	0	32844	27896	33192	53680	32236	
2028	0	32844	27884	33186	53576	32298	
2029	0	32840	27892	33156	53852	32292	
2030	0	32840	27888	33172	53680	32464	
2031	0	32832	27888	33177	53480	32672	
2032	0	32836	27896	33160	53828	32920	
2033	0	32848	27876	33138	53716	32968	
2034	0	32860	27876	33136	53452	32880	
2035	0	32860	27880	33130	53850	33300	
2036	0	32872	27892	33152	53692	33448	
2037	0	32856	27896	33184	53732	33384	
2038	0	32860	27892	33180	53760	33274	
2039	0	32856	27880	33168	53832	32994	
2040	0	32832	27882	33164	53696	32880	
2041	0	32844	27876	33176	53744	32904	
2042	0	32844	27876	33160	53804	32728	
2043	0	32840	27889	33148	53740	32652	
2044	0	32834	27896	33160	53736	32416	
2045	0	32848	27888	33136	53852	32488	
2046	0	32848	27884	33141	53716	32332	
2047	0	32856	27880	33152	53720	32472	
2048	0	32860	27884	33164	53712	32384	
2049	0	32844	27882	33172	53784	32448	
2050	0	32856	27888	33169	53696	32492	
2051	0	32852	27884	33184	53644	32616	
2052	0	32856	27888	33172	53844	32200	
2053	0	32852	27888	33176	53720	32424	
2054	0	32868	27888	33185	53408	33180	
2055	0	32869	27880	33216	53852	33808	
2056	0	32840	27905	33196	53712	34084	
2057	0	32848	27921	33204	53728	34046	
2058	0	32856	27912	33200	53616	33728	
2059	0	32842	27912	33192	53860	33256	
2060	0	32844	27900	33174	53740	32868	
2061	0	32848	27908	33152	53592	32544	
2062	0	32857	27889	33176	53812	32340	
2063	0	32860	27892	33152	53744	32317	
2064	0	32864	27898	33129	53732	32128	
2065	0	32858	27896	33152	53796	31884	
2066	0	32858	27892	33172	53768	31708	
2067	0	32864	27888	33152	53736	31940	
2068	0	32862	27884	33152	53680	32220	
2069	0	32858	27898	33144	53884	32644	
2070	0	32849	27884	33146	53704	32988	
2071	0	32860	27868	33164	53764	33386	
2072	0	32872	27880	33172	53800	33232	
2073	0	32845	27884	33172	53720	33320	
2074	0	32832	27888	33168	53728	33424	
2075	0	32844	27876	33164	53772	33152	
2076	0	32842	27888	33160	53728	32834	
2077	0	32848	27892	33176	53404	32864	
2078	0	32848	27891	33157	53856	33160	
2079	0	32852	27892	33172	53724	33336	
2080	0	32840	27900	33176	53712	33632	
2081	0	32836	27900	33168	53808	33584	
2082	0	32844	27892	33160	53728	33424	
2083	0	32850	27880	33160	53768	32826	
2084	0	32850	27872	33120	53712	32580	
2085	0	32852	27881	33128	53712	32216	
2086	0	32842	27888	33136	53760	32168	
2087	0	32833	27897	33140	53708	32204	
2088	0	32840	27888	33120	53704	32272	
2089	0	32848	27888	33136	53732	32128	
2090	0	32842	27892	33142	53860	32208	
2091	0	32852	27890	33152	53708	32442	
2092	0	32844	27876	33152	53720	32708	
2093	0	32842	27881	33178	53324	32836	
2094	0	32848	27874	33160	53808	33096	
2095	0	32852	27876	33160	53680	33128	
2096	0	32848	27874	33168	53248	33326	
2097	0	32840	27872	33154	53788	33112	
2098	0	32836	27864	33137	53744	33024	
2099	0	32840	27882	33148	53732	32944	
2100	0	32836	27884	33146	53776	32674	
2101	0	32840	27884	33156	53776	32592	
2102	0	32842	27881	33152	53712	32552	
2103	0	32836	27888	33140	53268	32736	
2104	0	32844	27888	33136	53820	32722	
2105	0	32832	27880	33140	53720	32212	
2106	0	32834	27868	33148	53220	31682	
2107	0	32848	27866	33152	53840	32224	
2108	0	32836	27880	33144	53700	32848	
2109	0	32836	27868	33140	53608	33118	
2110	0	32832	27860	33144	53856	33496	
2111	0	32848	27856	33144	53728	33713	
2112	0	32836	27874	33148	53664	33552	
2113	0	32842	27888	33144	53848	33324	
2114	0	32848	27889	33136	53720	33266	
2115	0	32848	27888	33128	53716	33376	
2116	0	32848	27892	33128	53860	33346	
2117	0	32844	27900	33128	53752	33028	
2118	0	32848	27887	33136	53656	32872	
2119	0	32848	27882	33128	53836	32660	
2120	0	32848	27892	33128	53728	32672	
2121	0	32852	27886	33116	53672	32356	
2122	0	32852	27882	33098	53856	32360	
2123	0	32840	27882	33088	53754	32412	
2124	0	32836	27880	33120	53852	32260	
2125	0	32844	27872	33120	53728	32268	
2126	0	32844	27880	33100	53600	32464	
2127	0	32836	27872	33108	53732	32536	
2128	0	32825	27868	33104	53248	32673	
2129	0	32832	27868	33092	53844	32712	
2130	0	32834	27856	33104	53728	32352	
2131	0	32840	27856	33116	53736	32804	
2132	0	32836	27877	33112	53690	32868	
2133	0	32824	27876	33124	53848	32928	
2134	0	32824	27880	33116	53728	33070	
2135	0	32841	27882	33128	53636	33452	
2136	0	32862	27868	33140	53888	33548	
2137	0	32852	27874	33152	53776	33440	
2138	0	32848	27884	33156	53824	33132	
2139	0	32849	27876	33168	53748	33064	
2140	0	32862	27860	33160	53480	32944	
2141	0	32849	27868	33156	53900	32628	
2142	0	32852	27873	33150	53768	32128	
2143	0	32844	27873	33152	53852	31712	
2144	0	32852	27872	33132	53760	31676	
2145	0	32848	27872	33128	53768	31848	
2146	0	32860	27868	33128	53856	32610	
2147	0	32840	27876	33168	53752	33026	
2148	0	32844	27876	33176	53748	33300	
2149	0	32836	27896	33176	53812	33116	
2150	0	32840	27904	33168	53736	33316	
2151	0	32845	27884	33156	53784	33274	
2152	0	32840	27896	33154	53816	33496	
2153	0	32848	27896	33148	53784	33376	
2154	0	32837	27896	33153	53768	33020	
2155	0	32860	27888	33136	53788	32432	
2156	0	32856	27881	33117	53752	32456	
2157	0	32856	27882	33140	53792	32896	
2158	0	32848	27896	33165	53852	33204	
2159	0	32840	27902	33164	53756	33444	
2160	0	32844	27898	33144	53808	33224	
2161	0	32836	27892	33137	53832	33148	
2162	0	32837	27892	33148	53808	32876	
2163	0	32836	27904	33152	53832	32776	
2164	0	32833	27904	33137	53832	32720	
2165	0	32826	27904	33120	53776	32728	
2166	0	32838	27896	33128	53832	32516	
2167	0	32828	27888	33136	53816	32156	
2168	0	32836	27896	33136	53788	32250	
2169	0	32840	27880	33137	53912	32272	
2170	0	32836	27890	33148	53768	32300	
2171	0	32836	27886	33144	53816	32298	
2172	0	32836	27896	33148	53796	32428	
2173	0	32864	27868	33145	53888	32778	
2174	0	32868	27869	33168	53818	33058	
2175	0	32860	27876	33144	53888	33340	
2176	0	32858	27876	33164	53808	33352	
2177	0	32856	27898	33176	53436	33448	
2178	0	32848	27882	33164	53924	33292	
2179	0	32849	27888	33164	53852	32936	
2180	0	32844	27900	33164	53852	32928	
2181	0	32837	27888	33176	53944	32844	
2182	0	32852	27898	33168	53808	32824	
2183	0	32852	27880	33160	53416	32574	
2184	0	32856	27868	33172	53952	32508	
2185	0	32864	27872	33160	53818	32444	
2186	0	32856	27877	33156	53540	32296	
2187	0	32860	27872	33160	53944	32468	
2188	0	32868	27864	33172	53824	32482	
2189	0	32862	27868	33164	53900	32308	
2190	0	32868	27880	33144	53824	32416	
2191	0	32856	27892	33154	53580	32580	
2192	0	32844	27896	33176	53962	32900	
2193	0	32840	27892	33184	53820	32976	
2194	0	32844	27882	33164	53724	33088	
2195	0	32848	27884	33164	54004	33329	
2196	0	32852	27890	33160	53832	33432	
2197	0	32848	27904	33158	53708	33384	
2198	0	32848	27904	33156	53946	33304	
2199	0	32858	27908	33168	53876	33156	
2200	0	32860	27904	33172	54000	33020	
2201	0	32862	27888	33180	53888	32850	
2202	0	32858	27888	33160	53976	32816	
2203	0	32852	27888	33180	53840	32600	
2204	0	32841	27892	33168	53904	32516	
2205	0	32844	27900	33168	53868	32396	
2206	0	32856	27888	33140	53876	32056	
2207	0	32862	27884	33152	53996	32184	
2208	0	32864	27886	33144	53856	32056	
2209	0	32860	27896	33142	53568	31664	
2210	0	32841	27906	33144	53980	31808	
2211	0	32856	27898	33168	53840	32648	
2212	0	32835	27889	33168	53448	33368	
2213	0	32844	27888	33164	53984	33804	
2214	0	32840	27888	33164	53896	33884	
2215	0	32852	27896	33160	54000	34204	
2216	0	32860	27888	33160	53880	34240	
2217	0	32868	27890	33144	53924	33696	
2218	0	32848	27893	33156	53956	33332	
2219	0	32848	27896	33132	54040	33044	
2220	0	32849	27888	33160	53888	32808	
2221	0	32852	27898	33152	53804	32432	
2222	0	32856	27908	33168	54052	32460	
2223	0	32844	27900	33164	53864	32492	
2224	0	32848	27888	33164	53912	32268	
2225	0	32841	27904	33164	53936	32029	
2226	0	32836	27904	33153	54012	32225	
2227	0	32828	27904	33156	53876	32292	
2228	0	32826	27904	33168	53816	32416	
2229	0	32834	27890	33152	54012	32264	
2230	0	32840	27888	33156	53902	31876	
2231	0	32844	27901	33144	53504	31829	
2232	0	32844	27882	33168	54028	32182	
2233	0	32848	27873	33164	53916	32504	
2234	0	32840	27900	33166	53944	33172	
2235	0	32844	27896	33168	53940	33828	
2236	0	32836	27896	33170	53892	34072	
2237	0	32840	27892	33168	53568	33992	
2238	0	32840	27898	33172	54032	33829	
2239	0	32848	27908	33180	53904	33624	
2240	0	32848	27892	33165	53904	33488	
2241	0	32844	27884	33164	53916	33120	
2242	0	32840	27888	33168	53912	32898	
2243	0	32828	27896	33168	54012	32536	
2244	0	32828	27896	33184	53912	32212	
2245	0	32832	27889	33168	53792	32296	
2246	0	32820	27884	33156	53912	32252	
2247	0	32824	27900	33144	53740	31488	
2248	0	32840	27896	33132	54040	31240	
2249	0	32844	27884	33128	53940	31640	
2250	0	32840	27884	33124	53980	32340	
2251	0	32836	27890	33140	53960	33284	
2252	0	32846	27898	33148	53912	33918	
2253	0	32844	27892	33148	54056	33780	
2254	0	32825	27898	33144	53946	33612	
2255	0	32832	27892	33148	53560	32836	
2256	0	32840	27896	33156	54060	32792	
2257	0	32836	27912	33176	53924	33404	
2258	0	32836	27898	33176	53856	33793	
2259	0	32844	27888	33184	53968	33700	
2260	0	32832	27884	33169	53624	33552	
2261	0	32824	27896	33180	54048	33124	
2262	0	32840	27888	33172	53940	32656	
2263	0	32840	27888	33180	53840	32336	
2264	0	32824	27890	33169	54016	32344	
2265	0	32824	27892	33152	53928	32144	
2266	0	32836	27888	33160	53876	32152	
2267	0	32840	27876	33148	54048	32180	
2268	0	32848	27874	33160	53936	32132	
2269	0	32837	27864	33148	53936	32092	
2270	0	32821	27870	33160	53912	32336	
2271	0	32824	27868	33152	53860	32556	
2272	0	32816	27872	33136	53928	32700	
2273	0	32816	27868	33120	53952	32912	
2274	0	32816	27876	33140	54044	33160	
2275	0	32824	27872	33152	53944	33404	
2276	0	32840	27868	33132	53968	33532	
2277	0	32836	27880	33116	53920	33480	
2278	0	32832	27872	33138	53652	33022	
2279	0	32844	27858	33176	54064	32920	
2280	0	32836	27872	33206	53968	32868	
2281	0	32836	27868	33176	53928	32724	
2282	0	32848	27876	33152	54048	32644	
2283	0	32840	27872	33152	53952	32636	
2284	0	32828	27880	33148	54016	32632	
2285	0	32834	27880	33148	53972	32482	
2286	0	32848	27872	33124	53960	32570	
2287	0	32856	27874	33120	53952	32546	
2288	0	32856	27873	33148	54004	32608	
2289	0	32852	27876	33192	53952	32412	
2290	0	32848	27876	33180	54000	32608	
2291	0	32844	27872	33172	54036	32690	
2292	0	32844	27880	33164	53972	32944	
2293	0	32840	27888	33160	53976	32852	
2294	0	32844	27877	33156	54072	33018	
2295	0	32832	27885	33156	53960	33264	
2296	0	32832	27892	33160	53920	33400	
2297	0	32852	27900	33148	54092	33248	
2298	0	32848	27900	33164	53964	33184	
2299	0	32848	27885	33184	53872	33016	
2300	0	32845	27890	33192	54092	33056	
2301	0	32848	27888	33200	53948	32876	
2302	0	32842	27896	33180	53536	32564	
2303	0	32836	27908	33168	54080	32564	
2304	0	32838	27888	33148	53936	32532	
2305	0	32842	27872	33136	53960	32328	
2306	0	32840	27876	33136	54008	32424	
2307	0	32844	27880	33144	54072	32496	
2308	0	32850	27864	33164	53912	32592	
2309	0	32848	27866	33168	53876	32456	
2310	0	32848	27876	33156	54032	32464	
2311	0	32844	27888	33161	53960	32628	
2312	0	32840	27880	33170	53976	32876	
2313	0	32840	27876	33172	54028	32868	
2314	0	32848	27888	33156	53956	33012	
2315	0	32832	27884	33156	54024	33192	
2316	0	32840	27884	33176	53976	33306	
2317	0	32840	27884	33146	53960	32888	
2318	0	32842	27888	33152	53960	32513	
2319	0	32840	27884	33134	54072	31956	
2320	0	32852	27888	33136	53936	32368	
2321	0	32844	27877	33136	53520	33008	
2322	0	32844	27892	33144	54068	33144	
2323	0	32848	27890	33148	53928	33180	
2324	0	32844	27894	33152	53818	33498	
2325	0	32836	27889	33124	54020	33900	
2326	0	32824	27872	33144	53920	33664	
2327	0	32820	27878	33144	54012	33640	
2328	0	32816	27892	33144	53908	33280	
2329	0	32816	27904	33136	53824	32860	
2330	0	32824	27904	33136	54056	32068	
2331	0	32834	27892	33116	53912	31964	
2332	0	32836	27892	33140	53760	32420	
2333	0	32848	27898	33148	54040	32492	
2334	0	32836	27892	33160	53896	32304	
2335	0	32842	27884	33172	53904	32512	
2336	0	32836	27896	33168	54048	32936	
2337	0	32840	27898	33148	53948	33160	
2338	0	32844	27900	33145	53900	33064	
2339	0	32840	27908	33144	53936	32908	
2340	0	32840	27900	33164	53972	32824	
2341	0	32840	27906	33160	53980	32565	
2342	0	32824	27904	33156	53936	32160	
2343	0	32826	27900	33160	53988	31964	
2344	0	32828	27896	33164	53916	32392	
2345	0	32828	27890	33176	53896	32740	
2346	0	32828	27892	33187	53968	33158	
2347	0	32816	27898	33192	53940	33168	
2348	0	32816	27892	33192	53876	33048	
2349	0	32804	27896	33188	53916	32920	
2350	0	32804	27900	33164	53968	32893	
2351	0	32810	27900	33156	53892	32856	
2352	0	32816	27893	33156	53940	32988	
2353	0	32826	27896	33148	53912	33016	
2354	0	32828	27904	33132	53872	32708	
2355	0	32836	27892	33132	53520	32900	
2356	0	32856	27892	33148	54016	32984	
2357	0	32844	27904	33170	53968	33176	
2358	0	32836	27900	33188	53896	32988	
2359	0	32848	27894	33180	53808	32736	
2360	0	32848	27896	33188	54040	32858	
2361	0	32848	27900	33180	53872	32848	
2362	0	32845	27896	33184	53516	32864	
2363	0	32844	27893	33184	54024	32572	
2364	0	32849	27884	33144	53878	32528	
2365	0	32836	27888	33156	53808	32472	
2366	0	32844	27888	33152	54008	32412	
2367	0	32842	27888	33157	53924	32398	
2368	0	32836	27888	33176	53892	32272	
2369	0	32836	27886	33160	53712	32228	
2370	0	32836	27888	33164	54040	32432	
2371	0	32828	27896	33188	53880	32602	
2372	0	32836	27876	33164	53892	32768	
2373	0	32840	27888	33168	53936	32940	
2374	0	32843	27876	33156	54004	33246	
2375	0	32852	27882	33156	53880	33410	
2376	0	32852	27888	33172	53912	33526	
2377	0	32848	27881	33172	53932	33404	
2378	0	32848	27888	33168	53952	33212	
2379	0	32848	27888	33160	53912	33168	
2380	0	32848	27888	33156	54008	33136	
2381	0	32845	27889	33172	53896	32884	
2382	0	32845	27886	33192	53908	32632	
2383	0	32856	27886	33208	54032	32640	
2384	0	32856	27888	33192	54000	32608	
2385	0	32856	27880	33164	53928	32512	
2386	0	32860	27888	33184	53912	32312	
2387	0	32844	27892	33172	53888	32324	
2388	0	32840	27896	33168	53912	32472	
2389	0	32845	27906	33164	53960	32532	
2390	0	32860	27898	33168	53896	32360	
2391	0	32860	27892	33156	53904	32388	
2392	0	32856	27888	33180	53944	32272	
2393	0	32864	27896	33180	53960	32141	
2394	0	32860	27888	33172	53888	31840	
2395	0	32853	27888	33172	53628	32316	
2396	0	32860	27884	33174	53940	33456	
2397	0	32868	27870	33164	53960	34384	
2398	0	32872	27860	33178	53896	34724	
2399	0	32852	27881	33174	53820	34440	
2400	0	32865	27872	33168	54036	34384	
2401	0	32868	27880	33196	53892	33968	
2402	0	32872	27876	33176	53912	33352	
2403	0	32864	27884	33164	53940	33041	
2404	0	32860	27892	33170	53952	32628	
2405	0	32868	27900	33168	53912	32112	
2406	0	32864	27898	33172	53920	31716	
2407	0	32868	27892	33160	53884	31594	
2408	0	32864	27880	33164	53904	31868	
2409	0	32844	27888	33144	53952	32012	
2410	0	32856	27896	33148	53920	32044	
2411	0	32840	27888	33152	53916	32224	
2412	0	32852	27896	33152	53984	32712	
2413	0	32856	27900	33168	53888	32956	
2414	0	32852	27900	33148	53900	33156	
2415	0	32856	27898	33164	53992	33349	
2416	0	32856	27904	33173	53904	33264	
2417	0	32852	27896	33176	53536	33332	
2418	0	32842	27906	33168	54016	33196	
2419	0	32840	27890	33168	53920	33096	
2420	0	32848	27898	33180	53968	32952	
2421	0	32840	27902	33172	53968	32700	
2422	0	32840	27904	33156	53912	32708	
2423	0	32844	27900	33144	54032	32593	
2424	0	32832	27898	33140	53896	32596	
2425	0	32828	27900	33128	53924	32354	
2426	0	32836	27904	33122	53952	32368	
2427	0	32828	27892	33136	53912	32456	
2428	0	32842	27888	33154	53984	32612	
2429	0	32834	27888	33156	53972	31980	
2430	0	32837	27888	33160	53936	31288	
2431	0	32852	27876	33168	54016	31912	
2432	0	32858	27866	33156	53920	32756	
2433	0	32848	27884	33164	53888	33416	
2434	0	32840	27888	33164	53936	33828	
2435	0	32842	27888	33160	53796	34092	
2436	0	32840	27885	33137	54036	34046	
2437	0	32832	27889	33152	53936	33776	
2438	0	32836	27888	33154	54032	33708	
2439	0	32844	27874	33157	53912	33728	
2440	0	32844	27868	33164	54004	33496	
2441	0	32832	27888	33162	53932	33200	
2442	0	32826	27884	33148	53624	32632	
2443	0	32820	27904	33164	54080	32144	
2444	0	32828	27896	33156	53948	32296	
2445	0	32824	27892	33160	53960	32168	
2446	0	32818	27889	33160	53908	32104	
2447	0	32820	27884	33160	53684	31968	
2448	0	32820	27876	33152	54036	32256	
2449	0	32828	27884	33156	53928	32288	
2450	0	32824	27878	33144	54056	32180	
2451	0	32824	27884	33148	53908	32436	
2452	0	32818	27882	33148	53768	32688	
2453	0	32824	27884	33136	54040	32980	
2454	0	32828	27880	33122	53912	33054	
2455	0	32842	27866	33124	53512	33396	
2456	0	32852	27861	33132	54072	33366	
2457	0	32850	27860	33150	53904	32648	
2458	0	32848	27872	33160	53616	32768	
2459	0	32856	27888	33160	54032	33104	
2460	0	32848	27872	33160	53924	33516	
2461	0	32832	27880	33176	53624	33562	
2462	0	32844	27900	33176	54008	33328	
2463	0	32836	27892	33172	53928	32896	
2464	0	32842	27904	33132	53904	32676	
2465	0	32848	27908	33148	53944	32460	
2466	0	32856	27900	33145	53912	32264	
2467	0	32856	27898	33165	53572	32272	
2468	0	32844	27914	33164	54012	32322	
2469	0	32848	27912	33170	53905	32360	
2470	0	32844	27916	33152	53904	32466	
2471	0	32833	27898	33168	54020	32514	
2472	0	32828	27897	33144	53892	32688	
2473	0	32832	27904	33128	53568	32768	
2474	0	32836	27906	33136	54024	33040	
2475	0	32832	27904	33140	53892	33224	
2476	0	32824	27898	33152	53946	33344	
2477	0	32836	27892	33168	53912	33364	
2478	0	32826	27890	33180	53436	33280	
2479	0	32844	27890	33162	54048	32620	
2480	0	32834	27893	33152	53908	32292	
2481	0	32828	27898	33156	53964	31662	
2482	0	32834	27882	33148	53872	31996	
2483	0	32824	27880	33140	53800	32794	
2484	0	32828	27882	33148	53952	33328	
2485	0	32824	27880	33144	53912	33824	
2486	0	32834	27880	33136	53980	33804	
2487	0	32832	27880	33136	53888	33416	
2488	0	32836	27892	33164	53600	33384	
2489	0	32832	27880	33172	54000	33064	
2490	0	32840	27864	33160	53872	32760	
2491	0	32826	27864	33160	53968	32496	
2492	0	32829	27860	33160	53876	32404	
2493	0	32840	27872	33152	53492	32320	
2494	0	32840	27876	33144	54024	32458	
2495	0	32844	27868	33132	53900	32461	
2496	0	32849	27864	33156	53424	32868	
2497	0	32842	27868	33168	53920	33012	
2498	0	32841	27876	33168	54017	33012	
2499	0	32836	27892	33160	53876	32826	
2500	0	32832	27888	33152	53440	33000	
2501	0	32832	27881	33144	54008	32856	
2502	0	32824	27896	33152	53904	32688	
2503	0	32828	27900	33152	53840	32620	
2504	0	32842	27888	33144	53976	32586	
2505	0	32848	27890	33136	53888	32516	
2506	0	32856	27878	33152	53988	32300	
2507	0	32852	27864	33173	53864	32414	
2508	0	32840	27872	33140	53404	32538	
2509	0	32856	27860	33144	54012	32496	
2510	0	32864	27864	33152	53872	32352	
2511	0	32840	27884	33176	53464	32432	
2512	0	32832	27888	33182	54004	32708	
2513	0	32832	27888	33176	53872	32908	
2514	0	32832	27892	33144	53432	32988	
2515	0	32840	27886	33132	54012	33164	
2516	0	32848	27880	33156	53892	33420	
2517	0	32853	27888	33156	53896	33560	
2518	0	32848	27894	33184	54009	33338	
2519	0	32856	27888	33170	53860	33344	
2520	0	32844	27880	33176	53836	33412	
2521	0	32848	27896	33152	53888	33148	
2522	0	32848	27900	33154	53744	32896	
2523	0	32848	27896	33160	54032	32852	
2524	0	32856	27900	33152	53868	32588	
2525	0	32844	27888	33148	53936	31680	
2526	0	32844	27888	33137	53856	31792	
2527	0	32842	27892	33144	53828	32220	
2528	0	32848	27892	33160	53944	32768	
2529	0	32840	27889	33156	53888	33060	
2530	0	32848	27884	33160	53936	33120	
2531	0	32844	27880	33149	53888	33016	
2532	0	32848	27896	33148	53880	33138	
2533	0	32852	27892	33160	53936	33153	
2534	0	32856	27882	33152	53896	33060	
2535	0	32848	27872	33160	53888	33120	
2536	0	32864	27888	33172	53976	33268	
2537	0	32856	27880	33161	53860	33228	
2538	0	32832	27892	33160	53832	32856	
2539	0	32842	27904	33156	53936	32896	
2540	0	32840	27904	33146	53408	33000	
2541	0	32824	27908	33132	54020	32812	
2542	0	32840	27896	33142	53892	32704	
2543	0	32844	27898	33168	54036	32460	
2544	0	32852	27876	33156	53876	32386	
2545	0	32832	27884	33136	53976	32212	
2546	0	32836	27888	33136	53872	32188	
2547	0	32836	27892	33144	53744	32272	
2548	0	32850	27898	33156	53972	32416	
2549	0	32856	27892	33150	53872	32408	
2550	0	32848	27904	33164	53968	32344	
2551	0	32836	27896	33172	53856	32504	
2552	0	32824	27896	33168	53952	32538	
2553	0	32828	27896	33164	53856	32836	
2554	0	32826	27904	33172	53800	33132	
2555	0	32836	27906	33173	54000	33184	
2556	0	32850	27898	33152	53892	33520	
2557	0	32864	27892	33172	54040	33592	
2558	0	32849	27888	33194	53880	33424	
2559	0	32840	27892	33180	54024	33340	
2560	0	32844	27896	33188	53928	33164	
2561	0	32836	27892	33196	54024	32148	
2562	0	32828	27896	33184	53904	31628	
2563	0	32824	27892	33176	54020	31772	
2564	0	32836	27876	33196	53892	32296	
2565	0	32832	27880	33176	53980	32944	
2566	0	32837	27876	33184	53876	33238	
2567	0	32828	27880	33193	53992	32880	
2568	0	32836	27868	33180	53626	32784	
2569	0	32832	27872	33152	53904	32696	
2570	0	32842	27882	33154	53610	33066	
2571	0	32827	27892	33140	53968	33745	
2572	0	32824	27880	33128	53892	33944	
2573	0	32826	27880	33156	53992	33744	
2574	0	32826	27900	33152	53872	33232	
2575	0	32812	27900	33176	53956	32732	
2576	0	32808	27904	33172	53872	32737	
2577	0	32816	27896	33161	53988	32952	
2578	0	32828	27900	33174	53872	32932	
2579	0	32818	27905	33177	54012	32793	
2580	0	32825	27904	33170	53906	32592	
2581	0	32825	27904	33176	54024	32604	
2582	0	32832	27880	33169	53898	32472	
2583	0	32840	27870	33157	53994	32460	
2584	0	32820	27888	33152	53860	32248	
2585	0	32824	27884	33152	53888	32224	
2586	0	32832	27880	33168	53880	32104	
2587	0	32834	27864	33168	53944	31980	
2588	0	32824	27866	33160	53856	32224	
2589	0	32808	27884	33178	53888	32440	
2590	0	32820	27876	33168	53848	32496	
2591	0	32808	27884	33152	53552	32656	
2592	0	32810	27888	33168	53924	33020	
2593	0	32796	27892	33168	53572	33192	
2594	0	32818	27896	33140	54005	33572	
2595	0	32825	27900	33124	53896	33776	
2596	0	32828	27896	33140	54000	33752	
2597	0	32824	27888	33140	53888	33438	
2598	0	32824	27888	33128	54004	33376	
2599	0	32820	27882	33128	53872	33280	
2600	0	32836	27892	33148	53920	32916	
2601	0	32832	27892	33136	53866	32788	
2602	0	32836	27896	33140	53568	32624	
2603	0	32842	27892	33152	53960	32452	
2604	0	32844	27884	33148	53888	32212	
2605	0	32828	27872	33144	53992	32376	
2606	0	32836	27872	33160	53844	32368	
2607	0	32834	27884	33164	53764	32124	
2608	0	32836	27870	33164	54026	32284	
2609	0	32836	27872	33173	53860	32194	
2610	0	32840	27884	33168	53524	32308	
2611	0	32824	27880	33158	54004	32468	
2612	0	32828	27880	33160	53880	32932	
2613	0	32832	27888	33160	53816	33152	
2614	0	32832	27884	33161	54012	33252	
2615	0	32840	27881	33156	53880	33452	
2616	0	32844	27876	33164	53896	33568	
2617	0	32848	27868	33200	53876	33748	
2618	0	32846	27876	33216	53812	32972	
2619	0	32845	27884	33176	53964	32496	
2620	0	32852	27880	33176	53904	32564	
2621	0	32852	27880	33165	54001	32768	
2622	0	32852	27888	33156	53904	32920	
2623	0	32842	27888	33136	54008	33256	
2624	0	32848	27880	33160	53880	33148	
2625	0	32842	27876	33160	53960	32824	
2626	0	32836	27884	33164	53876	32545	
2627	0	32842	27880	33168	53940	32500	
2628	0	32848	27880	33176	53872	32506	
2629	0	32834	27872	33136	53752	32536	
2630	0	32828	27876	33172	54004	32388	
2631	0	32832	27893	33148	53864	32474	
2632	0	32836	27896	33160	53888	32716	
2633	0	32836	27882	33168	53916	33052	
2634	0	32840	27884	33148	53776	33138	
2635	0	32844	27876	33140	53936	33052	
2636	0	32856	27876	33160	53716	33120	
2637	0	32846	27880	33146	54044	33232	
2638	0	32848	27880	33146	53888	33168	
2639	0	32832	27892	33132	53952	32980	
2640	0	32840	27897	33140	53890	33044	
2641	0	32840	27904	33132	53820	32784	
2642	0	32856	27896	33128	54024	32116	
2643	0	32834	27896	33132	53888	31940	
2644	0	32826	27898	33156	53960	32002	
2645	0	32828	27881	33128	53888	32400	
2646	0	32832	27882	33136	53832	32572	
2647	0	32832	27884	33164	54004	32929	
2648	0	32836	27872	33148	53872	33028	
2649	0	32828	27888	33136	54004	32072	
2650	0	32826	27888	33146	53856	32272	
2651	0	32824	27893	33144	53824	32888	
2652	0	32828	27900	33169	53936	33420	
2653	0	32824	27880	33168	53416	33848	
2654	0	32820	27896	33162	54000	33704	
2655	0	32824	27904	33176	53888	33332	
2656	0	32832	27898	33184	54032	33288	
2657	0	32836	27888	33176	53888	33248	
2658	0	32836	27896	33172	53912	33208	
2659	0	32826	27904	33188	53944	33032	
2660	0	32832	27902	33160	53888	33112	
2661	0	32840	27898	33146	53964	32864	
2662	0	32832	27900	33156	53868	32677	
2663	0	32840	27896	33156	53736	32554	
2664	0	32844	27884	33168	54024	32740	
2665	0	32844	27881	33164	53856	32548	
2666	0	32842	27892	33156	53660	32068	
2667	0	32840	27884	33148	53984	31904	
2668	0	32824	27876	33172	53897	32172	
2669	0	32824	27878	33172	53896	32152	
2670	0	32828	27888	33164	53988	32292	
2671	0	32824	27884	33164	53860	32312	
2672	0	32820	27892	33140	53936	32724	
2673	0	32832	27884	33132	53864	32852	
2674	0	32826	27888	33138	53744	33134	
2675	0	32820	27880	33160	53924	33244	
2676	0	32832	27888	33196	53904	33472	
2677	0	32832	27880	33192	54000	33568	
2678	0	32828	27884	33218	53868	33380	
2679	0	32824	27888	33208	53964	33216	
2680	0	32816	27896	33200	53868	32980	
2681	0	32832	27882	33192	53828	32578	
2682	0	32842	27884	33178	53988	32497	
2683	0	32840	27896	33196	53880	32416	
2684	0	32840	27890	33192	53888	31748	
2685	0	32840	27881	33192	53928	31936	
2686	0	32844	27868	33184	53868	32468	
2687	0	32856	27864	33164	53892	32986	
2688	0	32844	27868	33180	53900	33360	
2689	0	32840	27888	33156	53572	33412	
2690	0	32826	27884	33152	54008	33120	
2691	0	32844	27876	33140	53860	32952	
2692	0	32836	27886	33152	53840	32728	
2693	0	32844	27880	33168	53984	32828	
2694	0	32842	27876	33156	53880	33024	
2695	0	32849	27868	33162	54000	33152	
2696	0	32856	27880	33168	53856	32954	
2697	0	32860	27882	33161	53864	33104	
2698	0	32848	27890	33161	53888	33130	
2699	0	32848	27884	33160	53692	32932	
2700	0	32848	27890	33152	53941	32808	
2701	0	32852	27892	33144	53428	32872	
2702	0	32852	27890	33160	53960	32888	
2703	0	32844	27896	33180	53858	32704	
2704	0	32844	27888	33176	53984	32704	
2705	0	32840	27888	33176	53848	32692	
2706	0	32832	27892	33184	53880	32328	
2707	0	32836	27880	33176	53848	32300	
2708	0	32840	27880	33164	53368	32380	
2709	0	32832	27872	33152	53976	32448	
2710	0	32828	27896	33136	53828	32216	
2711	0	32832	27888	33152	53504	32461	
2712	0	32836	27898	33164	53976	32636	
2713	0	32834	27889	33188	53848	32772	
2714	0	32840	27892	33188	53880	32712	
2715	0	32840	27888	33160	53984	32388	
2716	0	32848	27888	33146	53860	32580	
2717	0	32840	27896	33156	53988	33132	
2718	0	32836	27896	33152	53788	33634	
2719	0	32836	27874	33156	53880	33850	
2720	0	32832	27884	33168	53840	33732	
2721	0	32848	27888	33144	53388	33592	
2722	0	32858	27892	33164	53988	32820	
2723	0	32840	27896	33184	53864	32736	
2724	0	32844	27888	33172	53978	32804	
2725	0	32849	27866	33176	53824	32736	
2726	0	32848	27876	33168	53840	32796	
2727	0	32828	27872	33162	53840	32840	
2728	0	32848	27872	33152	53544	32913	
2729	0	32848	27880	33152	53960	32794	
2730	0	32846	27876	33136	53844	32876	
2731	0	32834	27876	33124	53920	32728	
2732	0	32840	27880	33148	53840	32737	
2733	0	32841	27864	33157	53952	32588	
2734	0	32832	27876	33168	53816	32584	
2735	0	32840	27864	33186	53816	32720	
2736	0	32848	27872	33188	53856	32800	
2737	0	32860	27876	33178	53432	32888	
2738	0	32848	27884	33180	53962	33000	
2739	0	32844	27896	33152	53832	32941	
2740	0	32840	27902	33140	54012	32820	
2741	0	32824	27890	33156	53872	32764	
2742	0	32826	27904	33160	53876	32698	
2743	0	32826	27896	33156	53824	32636	
2744	0	32828	27900	33148	53568	32472	
2745	0	32832	27886	33136	53972	32320	
2746	0	32832	27884	33142	53840	31641	
2747	0	32836	27880	33156	53968	31732	
2748	0	32840	27876	33112	53848	32416	
2749	0	32840	27860	33128	53984	32924	
2750	0	32844	27870	33128	53828	33328	
2751	0	32836	27872	33128	53860	33272	
2752	0	32840	27872	33128	53820	33336	
2753	0	32828	27864	33136	53880	33096	
2754	0	32832	27872	33136	53832	32808	
2755	0	32832	27884	33136	53768	32968	
2756	0	32840	27886	33141	53924	33282	
2757	0	32840	27888	33153	53608	33336	
2758	0	32848	27880	33180	53936	33216	
2759	0	32848	27872	33192	53892	33060	
2760	0	32844	27874	33176	54024	32884	
2761	0	32840	27884	33164	53856	32440	
2762	0	32832	27888	33172	53744	32440	
2763	0	32844	27898	33162	53960	32480	
2764	0	32836	27904	33170	53860	32616	
2765	0	32842	27888	33184	53988	32368	
2766	0	32844	27888	33172	53868	32428	
2767	0	32842	27876	33152	53876	32496	
2768	0	32834	27880	33160	53908	32788	
2769	0	32842	27876	33152	53840	32808	
2770	0	32832	27882	33148	53940	32680	
2771	0	32824	27896	33168	53824	32812	
2772	0	32817	27908	33180	53352	32936	
2773	0	32820	27912	33160	53956	32980	
2774	0	32826	27896	33160	53812	32898	
2775	0	32826	27884	33168	53904	32964	
2776	0	32834	27888	33172	53864	33062	
2777	0	32832	27900	33188	53328	33236	
2778	0	32834	27896	33192	53964	33080	
2779	0	32832	27880	33176	53828	33084	
2780	0	32832	27884	33184	53800	33072	
2781	0	32824	27882	33168	53892	33052	
2782	0	32820	27888	33188	53816	32860	
2783	0	32820	27900	33176	53904	32352	
2784	0	32833	27896	33176	53832	31798	
2785	0	32836	27888	33164	53376	32112	
2786	0	32836	27872	33166	53956	32576	
2787	0	32836	27868	33160	53796	33176	
2788	0	32824	27884	33168	53632	33136	
2789	0	32822	27872	33144	53936	32984	
2790	0	32820	27876	33156	53804	32616	
2791	0	32826	27880	33156	53756	32528	
2792	0	32832	27904	33170	53936	32730	
2793	0	32828	27884	33156	53812	32912	
2794	0	32844	27880	33160	53808	33232	
2795	0	32844	27892	33160	53936	33424	
2796	0	32850	27888	33156	53816	33348	
2797	0	32840	27888	33160	53824	33236	
2798	0	32844	27884	33200	53876	33140	
2799	0	32856	27888	33192	53804	32912	
2800	0	32852	27888	33168	53800	32784	
2801	0	32856	27882	33160	53912	32736	
2802	0	32844	27892	33169	53792	32570	
2803	0	32832	27892	33172	53788	32552	
2804	0	32836	27886	33176	53844	32398	
2805	0	32842	27880	33176	53788	32300	
2806	0	32846	27880	33156	53876	32356	
2807	0	32836	27876	33160	53784	31424	
2808	0	32844	27884	33172	53736	31164	
2809	0	32852	27890	33168	53904	31568	
2810	0	32840	27876	33164	53804	32448	
2811	0	32832	27884	33168	53856	33236	
2812	0	32836	27882	33162	53808	34176	
2813	0	32828	27892	33172	53528	34104	
2814	0	32822	27894	33152	53960	33828	
2815	0	32840	27888	33165	53784	33712	
2816	0	32848	27888	33160	53664	33800	
2817	0	32852	27888	33176	53956	33868	
2818	0	32856	27900	33164	53804	33536	
2819	0	32858	27888	33166	53752	33124	
2820	0	32848	27888	33180	53936	32824	
2821	0	32856	27892	33200	53824	32492	
2822	0	32852	27884	33204	53528	32432	
2823	0	32840	27888	33192	53944	32360	
2824	0	32840	27893	33192	53856	32420	
2825	0	32824	27896	33196	53852	32280	
2826	0	32820	27900	33200	53968	32300	
2827	0	32828	27904	33176	53808	32166	
2828	0	32828	27888	33156	53480	32196	
2829	0	32816	27884	33158	53988	32232	
2830	0	32836	27888	33172	53832	32320	
2831	0	32842	27896	33188	53732	32442	
2832	0	32832	27892	33208	53972	32740	
2833	0	32820	27904	33192	53848	32856	
2834	0	32816	27886	33180	53768	32852	
2835	0	32832	27898	33160	53994	32465	
2836	0	32840	27888	33168	53840	32472	
2837	0	32824	27892	33170	53816	32864	
2838	0	32828	27892	33164	53944	33528	
2839	0	32841	27892	33144	53852	33780	
2840	0	32842	27897	33160	53968	33878	
2841	0	32832	27898	33152	53850	33704	
2842	0	32820	27888	33152	53488	33372	
2843	0	32826	27892	33152	54004	32873	
2844	0	32824	27900	33140	53860	32670	
2845	0	32832	27896	33166	53842	32618	
2846	0	32824	27908	33184	53920	32832	
2847	0	32816	27905	33147	53860	32512	
2848	0	32823	27902	33144	53984	32346	
2849	0	32826	27900	33128	53848	31954	
2850	0	32822	27904	33108	53876	31876	
2851	0	32824	27896	33108	53952	31970	
2852	0	32825	27888	33152	53868	32508	
2853	0	32832	27888	33145	53384	32936	
2854	0	32820	27892	33138	53960	33072	
2855	0	32832	27892	33132	53872	33288	
2856	0	32828	27882	33144	53864	33320	
2857	0	32821	27892	33152	53948	33424	
2858	0	32834	27892	33168	53852	33408	
2859	0	32824	27900	33176	53708	33226	
2860	0	32824	27904	33176	53992	33152	
2861	0	32840	27896	33176	53876	32908	
2862	0	32840	27903	33164	53876	32792	
2863	0	32826	27892	33162	53864	32500	
2864	0	32829	27888	33152	53856	32540	
2865	0	32836	27884	33152	53908	32350	
2866	0	32828	27884	33168	53960	32280	
2867	0	32824	27888	33160	53864	32456	
2868	0	32817	27892	33152	53816	32496	
2869	0	32808	27888	33148	53976	32592	
2870	0	32812	27880	33150	53858	32386	
2871	0	32828	27876	33132	53692	32428	
2872	0	32824	27892	33116	53976	32668	
2873	0	32820	27896	33160	53848	32932	
2874	0	32824	27882	33152	53940	32954	
2875	0	32820	27898	33160	53824	33200	
2876	0	32828	27892	33176	53704	33368	
2877	0	32836	27888	33150	53972	33412	
2878	0	32832	27888	33172	53860	33201	
2879	0	32832	27880	33140	54020	32926	
2880	0	32832	27881	33160	53852	32612	
2881	0	32816	27876	33152	53968	32684	
2882	0	32828	27860	33130	53856	32788	
2883	0	32824	27872	33152	53985	32952	
2884	0	32824	27896	33152	53856	32928	
2885	0	32828	27864	33144	53968	32798	
2886	0	32820	27872	33180	53824	32585	
2887	0	32820	27880	33188	53824	31924	
2888	0	32812	27888	33178	53864	31916	
2889	0	32824	27880	33176	53828	32572	
2890	0	32816	27888	33160	53896	33176	
2891	0	32820	27896	33152	53800	33570	
2892	0	32828	27888	33156	53384	33326	
2893	0	32820	27884	33172	53940	33140	
2894	0	32818	27888	33184	53812	33024	
2895	0	32840	27874	33180	53396	32940	
2896	0	32856	27888	33180	53976	32940	
2897	0	32840	27882	33176	53836	33156	
2898	0	32848	27880	33160	53896	33088	
2899	0	32845	27876	33148	53892	32800	
2900	0	32844	27882	33144	53840	32568	
2901	0	32840	27870	33141	53940	32712	
2902	0	32844	27880	33146	53832	32640	
2903	0	32842	27877	33144	53432	32512	
2904	0	32844	27870	33150	53948	32472	
2905	0	32856	27882	33160	53800	32265	
2906	0	32850	27868	33160	53812	31684	
2907	0	32844	27872	33168	53960	31912	
2908	0	32845	27880	33164	53832	32312	
2909	0	32828	27880	33160	53888	33028	
2910	0	32824	27868	33168	53824	33382	
2911	0	32827	27868	33161	53836	33488	
2912	0	32836	27872	33178	53960	33180	
2913	0	32836	27876	33152	53836	32965	
2914	0	32832	27884	33156	53868	33068	
2915	0	32832	27906	33148	53824	33148	
2916	0	32840	27916	33160	53704	33304	
2917	0	32844	27908	33180	53968	33184	
2918	0	32844	27897	33172	53820	33088	
2919	0	32856	27890	33176	53704	32236	
2920	0	32852	27888	33156	53928	32236	
2921	0	32844	27900	33164	53808	32696	
2922	0	32852	27890	33162	53860	32940	
2923	0	32856	27904	33160	53840	33360	
2924	0	32842	27888	33160	53808	33520	
2925	0	32840	27892	33160	53840	33232	
2926	0	32840	27892	33172	53780	32720	
2927	0	32840	27892	33180	53620	32510	
2928	0	32844	27900	33176	53856	32438	
2929	0	32852	27900	33176	53312	32276	
2930	0	32844	27896	33164	53908	32210	
2931	0	32856	27888	33140	53772	32224	
2932	0	32844	27896	33132	53816	32472	
2933	0	32844	27904	33136	53816	32314	
2934	0	32836	27904	33136	53784	32620	
2935	0	32848	27904	33152	53808	32740	
2936	0	32842	27896	33156	53857	33012	
2937	0	32848	27890	33146	53804	33170	
2938	0	32844	27900	33188	53864	33360	
2939	0	32852	27896	33200	53764	33240	
2940	0	32834	27896	33202	53536	33168	
2941	0	32828	27904	33184	53912	33128	
2942	0	32840	27908	33160	53804	33132	
2943	0	32840	27900	33168	53740	33112	
2944	0	32836	27901	33157	53816	33024	
2945	0	32832	27896	33154	53784	32970	
2946	0	32836	27900	33160	53832	32760	
2947	0	32840	27890	33156	53829	32276	
2948	0	32832	27896	33156	53760	32220	
2949	0	32828	27916	33145	53804	32368	
2950	0	32836	27896	33136	53829	32368	
2951	0	32832	27884	33132	53292	32424	
2952	0	32844	27872	33140	53916	32536	
2953	0	32848	27872	33152	53792	32836	
2954	0	32844	27888	33160	53776	32928	
2955	0	32848	27888	33148	53920	33208	
2956	0	32856	27896	33136	53788	33228	
2957	0	32832	27892	33140	53800	33244	
2958	0	32832	27904	33136	53900	32824	
2959	0	32828	27901	33188	53792	32544	
2960	0	32832	27912	33212	53640	32284	
2961	0	32832	27906	33200	53932	32432	
2962	0	32832	27886	33184	53780	32725	
2963	0	32828	27900	33176	53736	33036	
2964	0	32824	27888	33162	53844	33100	
2965	0	32828	27897	33168	53793	33192	
2966	0	32836	27888	33160	53848	33244	
2967	0	32852	27884	33137	53816	33288	
2968	0	32848	27880	33154	53800	33122	
2969	0	32841	27884	33168	53856	33016	
2970	0	32852	27876	33172	53780	32640	
2971	0	32840	27888	33152	53321	32272	
2972	0	32824	27892	33146	53916	32544	
2973	0	32832	27892	33152	53788	32630	
2974	0	32834	27880	33152	53404	32632	
2975	0	32826	27884	33152	53940	32960	
2976	0	32828	27896	33150	53824	32996	
2977	0	32844	27892	33136	53604	33080	
2978	0	32842	27888	33120	53918	33032	
2979	0	32837	27888	33156	53872	32956	
2980	0	32841	27892	33176	53800	32800	
2981	0	32848	27888	33200	53836	32840	
2982	0	32848	27886	33184	53824	32741	
2983	0	32834	27888	33176	53828	32640	
2984	0	32838	27880	33150	53888	32396	
2985	0	32836	27888	33156	53836	32513	
2986	0	32828	27884	33164	53800	32396	
2987	0	32836	27896	33160	53888	32348	
2988	0	32844	27900	33156	53852	32492	
2989	0	32840	27901	33160	53808	32426	
2990	0	32832	27892	33170	53608	32600	
2991	0	32820	27896	33176	53936	32684	
2992	0	32836	27900	33180	53800	32848	
2993	0	32836	27884	33180	53792	32820	
2994	0	32844	27888	33173	53752	32141	
2995	0	32844	27886	33172	53916	31776	
2996	0	32836	27889	33172	53812	32306	
2997	0	32832	27892	33152	53842	33440	
2998	0	32826	27904	33172	53864	34384	
2999	0	32832	27916	33168	53865	34412	
3000	0	32832	27910	33152	53818	33652	
3001	0	32840	27904	33152	53864	33468	
3002	0	32836	27900	33156	53852	33292	
3003	0	32824	27894	33152	53844	33220	
3004	0	32840	27902	33156	53716	33080	
3005	0	32840	27900	33168	53928	33188	
3006	0	32840	27892	33152	53800	32836	
3007	0	32844	27888	33128	53684	32300	
3008	0	32844	27892	33140	53940	32120	
3009	0	32836	27893	33152	53848	32020	
3010	0	32836	27892	33160	53940	32192	
3011	0	32840	27900	33132	53808	32236	
3012	0	32840	27912	33124	53752	32393	
3013	0	32840	27896	33112	53896	32468	
3014	0	32848	27892	33116	53808	32828	
3015	0	32856	27894	33148	53824	33264	
3016	0	32856	27892	33170	53893	33560	
3017	0	32852	27888	33184	53832	33208	
3018	0	32844	27888	33168	53952	33149	
3019	0	32844	27884	33184	53836	32858	
3020	0	32844	27896	33184	53852	32780	
3021	0	32853	27892	33182	53840	32580	
3022	0	32848	27888	33164	53576	32552	
3023	0	32848	27889	33172	53960	32508	
3024	0	32840	27884	33180	53844	32624	
3025	0	32834	27880	33168	53880	32504	
3026	0	32844	27880	33184	53936	32476	
3027	0	32842	27876	33180	53848	32528	
3028	0	32832	27872	33156	53848	32650	
3029	0	32828	27876	33157	53912	32640	
3030	0	32826	27892	33168	53860	32594	
3031	0	32833	27876	33164	53976	32696	
3032	0	32828	27890	33162	53840	32725	
3033	0	32832	27896	33136	53848	32908	
3034	0	32848	27880	33140	53864	32868	
3035	0	32852	27868	33152	53984	33052	
3036	0	32848	27880	33166	53864	33272	
3037	0	32856	27888	33168	53904	33456	
3038	0	32852	27874	33176	53856	33432	
3039	0	32860	27870	33176	53728	33092	
3040	0	32848	27872	33180	54008	33056	
3041	0	32844	27876	33180	53864	32861	
3042	0	32840	27880	33176	53916	32529	
3043	0	32840	27886	33172	53864	32308	
3044	0	32840	27892	33156	53404	32372	
3045	0	32832	27892	33148	54016	32304	
3046	0	32836	27898	33148	53876	32459	
3047	0	32840	27888	33144	53960	32552	
3048	0	32852	27880	33152	53872	32493	
3049	0	32856	27864	33150	53540	32300	
3050	0	32848	27868	33120	53940	32204	
3051	0	32856	27876	33120	53908	32324	
3052	0	32852	27876	33136	53988	32884	
3053	0	32853	27888	33136	53868	33336	
3054	0	32860	27878	33150	53812	33525	
3055	0	32856	27868	33144	53988	33616	
3056	0	32854	27872	33140	53888	33642	
3057	0	32856	27880	33164	54012	33568	
3058	0	32856	27876	33144	53892	33656	
3059	0	32852	27872	33152	53872	33488	
3060	0	32846	27864	33160	54040	33258	
3061	0	32840	27872	33140	53872	32792	
3062	0	32840	27874	33144	53924	32592	
3063	0	32836	27876	33152	53900	32396	
3064	0	32840	27885	33144	53576	32192	
3065	0	32856	27880	33140	54008	32016	
3066	0	32856	27876	33136	53860	32136	
3067	0	32844	27864	33140	53700	32240	
3068	0	32848	27856	33136	53996	32250	
3069	0	32844	27854	33136	53876	32176	
3070	0	32848	27856	33144	53752	32500	
3071	0	32848	27864	33157	53992	32660	
3072	0	32836	27872	33136	53880	32876	
3073	0	32830	27868	33122	53928	33114	
3074	0	32828	27890	33132	54024	33405	
3075	0	32832	27884	33124	53880	33492	
3076	0	32832	27888	33144	53448	33480	
3077	0	32826	27896	33148	54036	33306	
3078	0	32824	27888	33160	53888	33258	
3079	0	32816	27892	33168	53792	33064	
