# OpenSignals Text File Format. Version 1
# {"00:07:80:0F:2F:AD": {"position": 0, "device": "biosignalsplux", "device name": "00:07:80:0F:2F:AD", "device connection": "BTH00:07:80:0F:2F:AD", "sampling rate": 1000, "resolution": [16], "firmware version": 775, "comments": "", "keywords": "", "mode": 0, "sync interval": 2, "date": "2021-10-22", "time": "14:50:25.309", "channels": [1], "sensor": ["FSRII"], "label": ["CH1"], "column": ["nSeq", "DI", "CH1"], "special": [{"SpO2": [80, 40, 5, 4, 3, 3]}, {"SpO2": [80, 40, 5, 4, 3, 3]}, {"SpO2": [80, 40, 5, 4, 3, 3]}, {"SpO2": [80, 40, 5, 4, 3, 3]}, {"SpO2": [80, 40, 5, 4, 3, 3]}, {"SpO2": [80, 40, 5, 4, 3, 3]}, {"SpO2": [80, 40, 5, 4, 3, 3]}, {"SpO2": [80, 40, 5, 4, 3, 3]}], "digital IO": [0, 1], "sleeve color": ["black"], "convertedValues": 0}}
# EndOfHeader
0	0	19706	
1	0	19612	
2	0	19536	
3	0	19460	
4	0	19380	
5	0	19396	
6	0	19118	
7	0	19120	
8	0	18796	
9	0	18696	
10	0	18514	
11	0	18416	
12	0	18380	
13	0	18260	
14	0	18132	
15	0	18218	
16	0	17940	
17	0	17852	
18	0	17768	
19	0	17664	
20	0	17428	
21	0	17282	
22	0	17202	
23	0	17141	
24	0	17046	
25	0	17040	
26	0	16948	
27	0	16850	
28	0	16672	
29	0	16529	
30	0	16286	
31	0	16225	
32	0	16064	
33	0	15812	
34	0	15852	
35	0	15756	
36	0	15689	
37	0	15633	
38	0	15636	
39	0	15614	
40	0	15620	
41	0	15518	
42	0	15524	
43	0	15612	
44	0	15736	
45	0	15706	
46	0	15848	
47	0	15864	
48	0	15966	
49	0	15936	
50	0	15969	
51	0	15944	
52	0	16060	
53	0	16230	
54	0	16336	
55	0	16486	
56	0	16720	
57	0	16986	
58	0	17112	
59	0	17350	
60	0	17556	
61	0	18100	
62	0	18457	
63	0	18692	
64	0	19348	
65	0	19532	
66	0	19824	
67	0	20176	
68	0	20352	
69	0	20620	
70	0	20924	
71	0	21120	
72	0	21424	
73	0	21690	
74	0	22052	
75	0	22248	
76	0	22384	
77	0	22500	
78	0	23072	
79	0	23256	
80	0	23772	
81	0	24360	
82	0	24628	
83	0	25192	
84	0	25692	
85	0	25912	
86	0	26356	
87	0	26702	
88	0	26952	
89	0	27172	
90	0	27352	
91	0	27452	
92	0	27708	
93	0	27720	
94	0	27948	
95	0	28228	
96	0	28416	
97	0	28576	
98	0	28652	
99	0	28804	
100	0	29060	
101	0	29260	
102	0	29564	
103	0	29704	
104	0	29912	
105	0	30112	
106	0	30404	
107	0	30560	
108	0	30698	
109	0	30800	
110	0	30928	
111	0	31056	
112	0	31232	
113	0	31450	
114	0	31564	
115	0	31792	
116	0	31932	
117	0	32160	
118	0	32344	
119	0	32573	
120	0	32736	
121	0	32904	
122	0	33076	
123	0	33264	
124	0	33288	
125	0	33306	
126	0	33376	
127	0	33521	
128	0	33636	
129	0	33760	
130	0	33912	
131	0	34032	
132	0	34136	
133	0	34200	
134	0	34368	
135	0	34512	
136	0	34628	
137	0	34784	
138	0	34874	
139	0	34988	
140	0	35032	
141	0	35092	
142	0	35200	
143	0	35192	
144	0	35272	
145	0	35296	
146	0	35408	
147	0	35504	
148	0	35508	
149	0	35688	
150	0	35704	
151	0	35840	
152	0	35968	
153	0	36008	
154	0	35992	
155	0	36088	
156	0	36060	
157	0	36088	
158	0	36188	
159	0	36208	
160	0	36284	
161	0	36316	
162	0	36312	
163	0	36312	
164	0	36312	
165	0	36332	
166	0	36376	
167	0	36400	
168	0	36480	
169	0	36468	
170	0	36428	
171	0	36476	
172	0	36440	
173	0	36376	
174	0	36420	
175	0	36424	
176	0	36496	
177	0	36504	
178	0	36504	
179	0	36416	
180	0	36456	
181	0	36408	
182	0	36416	
183	0	36434	
184	0	36416	
185	0	36428	
186	0	36368	
187	0	36424	
188	0	36496	
189	0	36528	
190	0	36648	
191	0	36626	
192	0	36592	
193	0	36632	
194	0	36680	
195	0	36704	
196	0	36724	
197	0	36804	
198	0	36828	
199	0	37016	
200	0	37104	
201	0	37088	
202	0	37100	
203	0	37176	
204	0	37288	
205	0	37324	
206	0	37380	
207	0	37448	
208	0	37504	
209	0	37596	
210	0	37720	
211	0	37684	
212	0	37720	
213	0	37784	
214	0	37804	
215	0	37768	
216	0	37812	
217	0	37832	
218	0	37848	
219	0	37904	
220	0	37808	
221	0	37872	
222	0	37840	
223	0	37864	
224	0	37800	
225	0	37840	
226	0	37880	
227	0	37900	
228	0	37916	
229	0	37928	
230	0	37882	
231	0	37892	
232	0	37836	
233	0	37832	
234	0	37810	
235	0	37792	
236	0	37824	
237	0	37840	
238	0	37772	
239	0	37736	
240	0	37804	
241	0	37744	
242	0	37704	
243	0	37684	
244	0	37688	
245	0	37584	
246	0	37488	
247	0	37418	
248	0	37432	
249	0	37384	
250	0	37432	
251	0	37368	
252	0	37256	
253	0	37292	
254	0	37240	
255	0	37248	
256	0	37176	
257	0	37204	
258	0	37144	
259	0	37096	
260	0	37108	
261	0	37056	
262	0	36992	
263	0	37000	
264	0	36972	
265	0	37012	
266	0	36944	
267	0	36920	
268	0	36836	
269	0	36796	
270	0	36716	
271	0	36736	
272	0	36716	
273	0	36724	
274	0	36664	
275	0	36668	
276	0	36652	
277	0	36680	
278	0	36680	
279	0	36684	
280	0	36704	
281	0	36700	
282	0	36692	
283	0	36632	
284	0	36716	
285	0	36672	
286	0	36736	
287	0	36728	
288	0	36736	
289	0	36726	
290	0	36900	
291	0	37080	
292	0	37100	
293	0	37212	
294	0	37264	
295	0	37288	
296	0	37356	
297	0	37336	
298	0	37432	
299	0	37512	
300	0	37512	
301	0	37516	
302	0	37456	
303	0	37452	
304	0	37392	
305	0	37536	
306	0	37572	
307	0	37604	
308	0	37568	
309	0	37648	
310	0	37696	
311	0	37736	
312	0	37800	
313	0	37832	
314	0	37888	
315	0	37976	
316	0	38052	
317	0	38152	
318	0	38184	
319	0	38332	
320	0	38592	
321	0	38732	
322	0	38888	
323	0	38932	
324	0	39008	
325	0	39140	
326	0	39264	
327	0	39296	
328	0	39418	
329	0	39460	
330	0	39456	
331	0	39444	
332	0	39424	
333	0	39492	
334	0	39444	
335	0	39436	
336	0	39476	
337	0	39476	
338	0	39544	
339	0	39560	
340	0	39552	
341	0	39624	
342	0	39632	
343	0	39704	
344	0	39740	
345	0	39776	
346	0	39812	
347	0	39856	
348	0	39908	
349	0	39964	
350	0	39984	
351	0	39960	
352	0	40024	
353	0	39976	
354	0	40000	
355	0	40044	
356	0	40044	
357	0	40058	
358	0	40092	
359	0	40040	
360	0	40152	
361	0	40116	
362	0	40216	
363	0	40264	
364	0	40328	
365	0	40352	
366	0	40412	
367	0	40500	
368	0	40604	
369	0	40548	
370	0	40572	
371	0	40628	
372	0	40664	
373	0	40738	
374	0	40808	
375	0	40796	
376	0	40832	
377	0	40896	
378	0	40932	
379	0	40960	
380	0	40988	
381	0	41084	
382	0	41128	
383	0	41116	
384	0	41256	
385	0	41272	
386	0	41232	
387	0	41296	
388	0	41352	
389	0	41392	
390	0	41416	
391	0	41482	
392	0	41556	
393	0	41700	
394	0	41824	
395	0	41932	
396	0	42036	
397	0	42104	
398	0	42164	
399	0	42276	
400	0	42328	
401	0	42392	
402	0	42432	
403	0	42520	
404	0	42608	
405	0	42704	
406	0	42740	
407	0	42760	
408	0	42860	
409	0	42908	
410	0	43012	
411	0	43092	
412	0	43184	
413	0	43244	
414	0	43304	
415	0	43388	
416	0	43416	
417	0	43480	
418	0	43588	
419	0	43588	
420	0	43656	
421	0	43712	
422	0	43804	
423	0	43792	
424	0	43812	
425	0	43908	
426	0	43892	
427	0	43988	
428	0	43992	
429	0	44040	
430	0	44092	
431	0	44104	
432	0	44216	
433	0	44192	
434	0	44220	
435	0	44256	
436	0	44288	
437	0	44312	
438	0	44324	
439	0	44352	
440	0	44392	
441	0	44440	
442	0	44456	
443	0	44512	
444	0	44544	
445	0	44576	
446	0	44608	
447	0	44600	
448	0	44636	
449	0	44668	
450	0	44724	
451	0	44724	
452	0	44728	
453	0	44792	
454	0	44824	
455	0	44804	
456	0	44808	
457	0	44844	
458	0	44884	
459	0	44896	
460	0	44928	
461	0	44960	
462	0	44996	
463	0	45088	
464	0	45098	
465	0	45112	
466	0	45192	
467	0	45256	
468	0	45220	
469	0	45320	
470	0	45380	
471	0	45384	
472	0	45448	
473	0	45516	
474	0	45540	
475	0	45628	
476	0	45592	
477	0	45656	
478	0	45728	
479	0	45776	
480	0	45840	
481	0	45908	
482	0	46008	
483	0	46048	
484	0	46100	
485	0	46152	
486	0	46232	
487	0	46296	
488	0	46352	
489	0	46408	
490	0	46408	
491	0	46476	
492	0	46548	
493	0	46616	
494	0	46680	
495	0	46728	
496	0	46800	
497	0	46852	
498	0	46944	
499	0	46984	
500	0	47048	
501	0	47108	
502	0	47128	
503	0	47168	
504	0	47232	
505	0	47232	
506	0	47244	
507	0	47288	
508	0	47352	
509	0	47412	
510	0	47400	
511	0	47452	
512	0	47472	
513	0	47500	
514	0	47508	
515	0	47556	
516	0	47604	
517	0	47612	
518	0	47604	
519	0	47572	
520	0	47636	
521	0	47708	
522	0	47692	
523	0	47712	
524	0	47704	
525	0	47728	
526	0	47764	
527	0	47736	
528	0	47744	
529	0	47764	
530	0	47788	
531	0	47808	
532	0	47840	
533	0	47872	
534	0	47908	
535	0	47912	
536	0	47920	
537	0	47976	
538	0	47952	
539	0	47956	
540	0	47940	
541	0	47948	
542	0	47968	
543	0	47964	
544	0	47964	
545	0	47936	
546	0	47940	
547	0	47976	
548	0	47968	
549	0	47968	
550	0	47932	
551	0	47916	
552	0	47928	
553	0	47944	
554	0	47924	
555	0	47932	
556	0	47924	
557	0	47912	
558	0	47916	
559	0	47896	
560	0	47872	
561	0	47836	
562	0	47872	
563	0	47864	
564	0	47856	
565	0	47832	
566	0	47848	
567	0	47824	
568	0	47856	
569	0	47768	
570	0	47784	
571	0	47726	
572	0	47712	
573	0	47664	
574	0	47680	
575	0	47688	
576	0	47680	
577	0	47708	
578	0	47696	
579	0	47672	
580	0	47668	
581	0	47640	
582	0	47656	
583	0	47640	
584	0	47620	
585	0	47628	
586	0	47640	
587	0	47620	
588	0	47608	
589	0	47604	
590	0	47608	
591	0	47624	
592	0	47628	
593	0	47624	
594	0	47584	
595	0	47596	
596	0	47584	
597	0	47568	
598	0	47580	
599	0	47560	
600	0	47568	
601	0	47560	
602	0	47544	
603	0	47540	
604	0	47496	
605	0	47500	
606	0	47460	
607	0	47420	
608	0	47396	
609	0	47360	
610	0	47344	
611	0	47308	
612	0	47288	
613	0	47236	
614	0	47252	
615	0	47192	
616	0	47216	
617	0	47168	
618	0	47124	
619	0	47152	
620	0	47080	
621	0	47048	
622	0	47034	
623	0	47040	
624	0	46992	
625	0	46964	
626	0	46944	
627	0	46960	
628	0	46920	
629	0	46934	
630	0	46920	
631	0	46892	
632	0	46800	
633	0	46808	
634	0	46776	
635	0	46720	
636	0	46692	
637	0	46696	
638	0	46632	
639	0	46604	
640	0	46620	
641	0	46584	
642	0	46516	
643	0	46432	
644	0	46436	
645	0	46424	
646	0	46404	
647	0	46384	
648	0	46376	
649	0	46364	
650	0	46352	
651	0	46328	
652	0	46336	
653	0	46304	
654	0	46288	
655	0	46264	
656	0	46264	
657	0	46236	
658	0	46192	
659	0	46216	
660	0	46168	
661	0	46136	
662	0	46144	
663	0	46112	
664	0	46080	
665	0	46056	
666	0	46028	
667	0	45992	
668	0	45960	
669	0	45961	
670	0	45896	
671	0	45864	
672	0	45864	
673	0	45844	
674	0	45756	
675	0	45744	
676	0	45712	
677	0	45668	
678	0	45652	
679	0	45664	
680	0	45592	
681	0	45564	
682	0	45544	
683	0	45488	
684	0	45424	
685	0	45436	
686	0	45380	
687	0	45320	
688	0	45296	
689	0	45250	
690	0	45216	
691	0	45148	
692	0	45108	
693	0	45056	
694	0	45040	
695	0	45024	
696	0	45000	
697	0	44912	
698	0	44896	
699	0	44808	
700	0	44752	
701	0	44716	
702	0	44692	
703	0	44616	
704	0	44600	
705	0	44540	
706	0	44464	
707	0	44344	
708	0	44292	
709	0	44144	
710	0	44072	
711	0	44028	
712	0	43940	
713	0	43880	
714	0	43792	
715	0	43676	
716	0	43644	
717	0	43548	
718	0	43472	
719	0	43360	
720	0	43394	
721	0	43288	
722	0	43216	
723	0	43172	
724	0	43092	
725	0	43024	
726	0	42944	
727	0	42896	
728	0	42828	
729	0	42772	
730	0	42716	
731	0	42592	
732	0	42540	
733	0	42512	
734	0	42412	
735	0	42352	
736	0	42240	
737	0	42172	
738	0	42096	
739	0	42056	
740	0	41960	
741	0	41860	
742	0	41812	
743	0	41712	
744	0	41704	
745	0	41608	
746	0	41584	
747	0	41472	
748	0	41456	
749	0	41344	
750	0	41292	
751	0	41236	
752	0	41192	
753	0	41128	
754	0	41080	
755	0	41016	
756	0	40944	
757	0	40864	
758	0	40816	
759	0	40700	
760	0	40632	
761	0	40544	
762	0	40428	
763	0	40384	
764	0	40216	
765	0	40136	
766	0	40072	
767	0	39984	
768	0	39952	
769	0	39856	
770	0	39812	
771	0	39776	
772	0	39684	
773	0	39648	
774	0	39596	
775	0	39556	
776	0	39496	
777	0	39418	
778	0	39360	
779	0	39320	
780	0	39232	
781	0	39240	
782	0	39164	
783	0	39124	
784	0	39016	
785	0	39012	
786	0	38896	
787	0	38824	
788	0	38796	
789	0	38768	
790	0	38720	
791	0	38644	
792	0	38560	
793	0	38472	
794	0	38464	
795	0	38380	
796	0	38324	
797	0	38288	
798	0	38240	
799	0	38144	
800	0	38040	
801	0	37972	
802	0	37936	
803	0	37936	
804	0	37840	
805	0	37796	
806	0	37744	
807	0	37700	
808	0	37668	
809	0	37680	
810	0	37588	
811	0	37580	
812	0	37604	
813	0	37464	
814	0	37488	
815	0	37452	
816	0	37400	
817	0	37368	
818	0	37344	
819	0	37312	
820	0	37268	
821	0	37264	
822	0	37232	
823	0	37224	
824	0	37232	
825	0	37164	
826	0	37132	
827	0	37104	
828	0	37096	
829	0	37024	
830	0	36980	
831	0	36872	
832	0	36840	
833	0	36736	
834	0	36712	
835	0	36668	
836	0	36644	
837	0	36580	
838	0	36496	
839	0	36404	
840	0	36380	
841	0	36348	
842	0	36296	
843	0	36152	
844	0	36080	
845	0	36000	
846	0	36004	
847	0	35960	
848	0	35980	
849	0	35912	
850	0	35912	
851	0	35896	
852	0	35836	
853	0	35828	
854	0	35808	
855	0	35768	
856	0	35794	
857	0	35768	
858	0	35688	
859	0	35700	
860	0	35684	
861	0	35688	
862	0	35680	
863	0	35612	
864	0	35672	
865	0	35584	
866	0	35640	
867	0	35636	
868	0	35624	
869	0	35600	
870	0	35636	
871	0	35576	
872	0	35604	
873	0	35556	
874	0	35594	
875	0	35568	
876	0	35516	
877	0	35512	
878	0	35480	
879	0	35428	
880	0	35424	
881	0	35408	
882	0	35340	
883	0	35384	
884	0	35396	
885	0	35364	
886	0	35328	
887	0	35328	
888	0	35332	
889	0	35290	
890	0	35244	
891	0	35216	
892	0	35204	
893	0	35204	
894	0	35240	
895	0	35232	
896	0	35244	
897	0	35200	
898	0	35204	
899	0	35200	
900	0	35180	
901	0	35176	
902	0	35172	
903	0	35196	
904	0	35112	
905	0	35136	
906	0	35128	
907	0	35100	
908	0	35160	
909	0	35148	
910	0	35102	
911	0	35162	
912	0	35080	
913	0	35096	
914	0	35140	
915	0	35084	
916	0	35068	
917	0	35016	
918	0	35072	
919	0	35040	
920	0	35060	
921	0	35056	
922	0	35060	
923	0	35060	
924	0	35064	
925	0	35048	
926	0	35056	
927	0	35020	
928	0	35050	
929	0	35048	
930	0	35036	
931	0	35056	
932	0	35068	
933	0	35084	
934	0	35092	
935	0	35176	
936	0	35104	
937	0	35096	
938	0	35112	
939	0	35064	
940	0	35044	
941	0	35028	
942	0	35120	
943	0	35136	
944	0	35024	
945	0	35056	
946	0	35068	
947	0	35080	
948	0	35076	
949	0	35032	
950	0	35064	
951	0	35044	
952	0	35044	
953	0	35044	
954	0	35064	
955	0	35036	
956	0	35096	
957	0	35088	
958	0	35020	
959	0	35108	
960	0	35112	
961	0	35096	
962	0	35108	
963	0	35144	
964	0	35136	
965	0	35172	
966	0	35144	
967	0	35130	
968	0	35096	
969	0	35100	
970	0	35132	
971	0	35084	
972	0	35080	
973	0	35072	
974	0	35092	
975	0	35136	
976	0	35096	
977	0	35092	
978	0	35124	
979	0	35092	
980	0	35112	
981	0	35092	
982	0	35136	
983	0	35172	
984	0	35120	
985	0	35136	
986	0	35152	
987	0	35088	
988	0	35070	
989	0	35090	
990	0	35024	
991	0	35056	
992	0	35080	
993	0	35056	
994	0	35040	
995	0	35072	
996	0	35028	
997	0	35016	
998	0	35044	
999	0	35048	
1000	0	35048	
1001	0	35068	
1002	0	35012	
1003	0	34996	
1004	0	34964	
1005	0	34976	
1006	0	34964	
1007	0	34944	
1008	0	34928	
1009	0	34916	
1010	0	34880	
1011	0	34924	
1012	0	34884	
1013	0	34920	
1014	0	34912	
1015	0	34896	
1016	0	34958	
1017	0	34916	
1018	0	34896	
1019	0	34912	
1020	0	34912	
1021	0	34944	
1022	0	34940	
1023	0	34924	
1024	0	34970	
1025	0	34960	
1026	0	34948	
1027	0	35000	
1028	0	34968	
1029	0	35028	
1030	0	35000	
1031	0	35016	
1032	0	35016	
1033	0	35052	
1034	0	35044	
1035	0	35116	
1036	0	35116	
1037	0	35136	
1038	0	35226	
1039	0	35248	
1040	0	35252	
1041	0	35248	
1042	0	35308	
1043	0	35368	
1044	0	35352	
1045	0	35336	
1046	0	35400	
1047	0	35420	
1048	0	35441	
1049	0	35452	
1050	0	35492	
1051	0	35496	
1052	0	35528	
1053	0	35504	
1054	0	35540	
1055	0	35532	
1056	0	35576	
1057	0	35584	
1058	0	35592	
1059	0	35616	
1060	0	35576	
1061	0	35596	
1062	0	35640	
1063	0	35624	
1064	0	35676	
1065	0	35700	
1066	0	35712	
1067	0	35704	
1068	0	35760	
1069	0	35736	
1070	0	35704	
1071	0	35740	
1072	0	35724	
1073	0	35744	
1074	0	35716	
1075	0	35752	
1076	0	35736	
1077	0	35760	
1078	0	35740	
1079	0	35748	
1080	0	35776	
1081	0	35780	
1082	0	35712	
1083	0	35764	
1084	0	35768	
1085	0	35728	
1086	0	35752	
1087	0	35736	
1088	0	35740	
1089	0	35696	
1090	0	35660	
1091	0	35664	
1092	0	35624	
1093	0	35612	
1094	0	35572	
1095	0	35548	
1096	0	35546	
1097	0	35540	
1098	0	35520	
1099	0	35488	
1100	0	35424	
1101	0	35488	
1102	0	35432	
1103	0	35412	
1104	0	35386	
1105	0	35424	
1106	0	35376	
1107	0	35378	
1108	0	35344	
1109	0	35320	
1110	0	35248	
1111	0	35252	
1112	0	35220	
1113	0	35224	
1114	0	35164	
1115	0	35176	
1116	0	35144	
1117	0	35132	
1118	0	35128	
1119	0	35076	
1120	0	35060	
1121	0	35104	
1122	0	35040	
1123	0	34980	
1124	0	34928	
1125	0	34888	
1126	0	34848	
1127	0	34824	
1128	0	34800	
1129	0	34736	
1130	0	34764	
1131	0	34756	
1132	0	34776	
1133	0	34740	
1134	0	34660	
1135	0	34752	
1136	0	34712	
1137	0	34696	
1138	0	34640	
1139	0	34668	
1140	0	34684	
1141	0	34660	
1142	0	34648	
1143	0	34664	
1144	0	34682	
1145	0	34616	
1146	0	34636	
1147	0	34584	
1148	0	34604	
1149	0	34612	
1150	0	34576	
1151	0	34560	
1152	0	34556	
1153	0	34496	
1154	0	34488	
1155	0	34500	
1156	0	34468	
1157	0	34472	
1158	0	34400	
1159	0	34400	
1160	0	34360	
1161	0	34396	
1162	0	34384	
1163	0	34348	
1164	0	34268	
1165	0	34304	
1166	0	34320	
1167	0	34312	
1168	0	34232	
1169	0	34192	
1170	0	34152	
1171	0	34200	
1172	0	33996	
1173	0	34036	
1174	0	33952	
1175	0	33964	
1176	0	33908	
1177	0	33896	
1178	0	33848	
1179	0	33756	
1180	0	33680	
1181	0	33672	
1182	0	33636	
1183	0	33604	
1184	0	33568	
1185	0	33580	
1186	0	33432	
1187	0	33360	
1188	0	33328	
1189	0	33304	
1190	0	33200	
1191	0	33140	
1192	0	33116	
1193	0	33092	
1194	0	33104	
1195	0	33080	
1196	0	32968	
1197	0	33016	
1198	0	32944	
1199	0	32876	
1200	0	32864	
1201	0	32844	
1202	0	32788	
1203	0	32728	
1204	0	32696	
1205	0	32700	
1206	0	32704	
1207	0	32676	
1208	0	32620	
1209	0	32622	
1210	0	32644	
1211	0	32600	
1212	0	32572	
1213	0	32600	
1214	0	32600	
1215	0	32608	
1216	0	32608	
1217	0	32560	
1218	0	32560	
1219	0	32585	
1220	0	32520	
1221	0	32552	
1222	0	32528	
1223	0	32564	
1224	0	32532	
1225	0	32604	
1226	0	32540	
1227	0	32560	
1228	0	32488	
1229	0	32468	
1230	0	32488	
1231	0	32460	
1232	0	32436	
1233	0	32448	
1234	0	32428	
1235	0	32424	
1236	0	32368	
1237	0	32396	
1238	0	32328	
1239	0	32360	
1240	0	32292	
1241	0	32332	
1242	0	32348	
1243	0	32336	
1244	0	32296	
1245	0	32300	
1246	0	32280	
1247	0	32276	
1248	0	32248	
1249	0	32250	
1250	0	32176	
1251	0	32224	
1252	0	32172	
1253	0	32216	
1254	0	32244	
1255	0	32272	
1256	0	32200	
1257	0	32260	
1258	0	32284	
1259	0	32228	
1260	0	32204	
1261	0	32160	
1262	0	32236	
1263	0	32220	
1264	0	32180	
1265	0	32136	
1266	0	32116	
1267	0	32104	
1268	0	32044	
1269	0	32000	
1270	0	32024	
1271	0	31920	
1272	0	31994	
1273	0	31968	
1274	0	31908	
1275	0	31936	
1276	0	31888	
1277	0	31812	
1278	0	31818	
1279	0	31736	
1280	0	31704	
1281	0	31708	
1282	0	31600	
1283	0	31520	
1284	0	31552	
1285	0	31436	
1286	0	31448	
1287	0	31420	
1288	0	31366	
1289	0	31440	
1290	0	31336	
1291	0	31312	
1292	0	31242	
1293	0	31232	
1294	0	31120	
1295	0	31040	
1296	0	31028	
1297	0	30968	
1298	0	30948	
1299	0	30940	
1300	0	30920	
1301	0	30804	
1302	0	30804	
1303	0	30792	
1304	0	30796	
1305	0	30820	
1306	0	30700	
1307	0	30644	
1308	0	30592	
1309	0	30580	
1310	0	30480	
1311	0	30452	
1312	0	30464	
1313	0	30504	
1314	0	30436	
1315	0	30392	
1316	0	30416	
1317	0	30360	
1318	0	30352	
1319	0	30360	
1320	0	30384	
1321	0	30244	
1322	0	30216	
1323	0	30220	
1324	0	30144	
1325	0	30192	
1326	0	30120	
1327	0	30056	
1328	0	29996	
1329	0	29988	
1330	0	30016	
1331	0	29920	
1332	0	29864	
1333	0	29820	
1334	0	29808	
1335	0	29724	
1336	0	29632	
1337	0	29628	
1338	0	29608	
1339	0	29480	
1340	0	29480	
1341	0	29372	
1342	0	29164	
1343	0	29200	
1344	0	29140	
1345	0	29180	
1346	0	29068	
1347	0	29092	
1348	0	29040	
1349	0	29096	
1350	0	28988	
1351	0	28980	
1352	0	28948	
1353	0	28916	
1354	0	28912	
1355	0	28900	
1356	0	28828	
1357	0	28860	
1358	0	28868	
1359	0	28814	
1360	0	28812	
1361	0	28836	
1362	0	28840	
1363	0	28844	
1364	0	28804	
1365	0	28768	
1366	0	28744	
1367	0	28752	
1368	0	28684	
1369	0	28696	
1370	0	28712	
1371	0	28692	
1372	0	28678	
1373	0	28680	
1374	0	28704	
1375	0	28664	
1376	0	28640	
1377	0	28668	
1378	0	28676	
1379	0	28640	
1380	0	28596	
1381	0	28628	
1382	0	28600	
1383	0	28572	
1384	0	28544	
1385	0	28540	
1386	0	28648	
1387	0	28668	
1388	0	28689	
1389	0	28696	
1390	0	28620	
1391	0	28624	
1392	0	28596	
1393	0	28632	
1394	0	28656	
1395	0	28624	
1396	0	28586	
1397	0	28624	
1398	0	28588	
1399	0	28616	
1400	0	28652	
1401	0	28684	
1402	0	28700	
1403	0	28736	
1404	0	28672	
1405	0	28736	
1406	0	28688	
1407	0	28616	
1408	0	28680	
1409	0	28656	
1410	0	28584	
1411	0	28644	
1412	0	28648	
1413	0	28644	
1414	0	28588	
1415	0	28600	
1416	0	28556	
1417	0	28532	
1418	0	28520	
1419	0	28540	
1420	0	28408	
1421	0	28410	
1422	0	28416	
1423	0	28392	
1424	0	28264	
1425	0	28184	
1426	0	28112	
1427	0	28056	
1428	0	28012	
1429	0	27936	
1430	0	27924	
1431	0	27904	
1432	0	27866	
1433	0	27780	
1434	0	27720	
1435	0	27768	
1436	0	27669	
1437	0	27594	
1438	0	27548	
1439	0	27418	
1440	0	27420	
1441	0	27324	
1442	0	27232	
1443	0	27240	
1444	0	27236	
1445	0	27188	
1446	0	27060	
1447	0	27024	
1448	0	26916	
1449	0	26858	
1450	0	26690	
1451	0	26708	
1452	0	26604	
1453	0	26569	
1454	0	26484	
1455	0	26524	
1456	0	26396	
1457	0	26296	
1458	0	26280	
1459	0	26184	
1460	0	26064	
1461	0	26016	
1462	0	25884	
1463	0	25816	
1464	0	25868	
1465	0	25786	
1466	0	25680	
1467	0	25624	
1468	0	25552	
1469	0	25480	
1470	0	25312	
1471	0	25312	
1472	0	25320	
1473	0	25272	
1474	0	25256	
1475	0	25144	
1476	0	25205	
1477	0	25132	
1478	0	25020	
1479	0	25032	
1480	0	24960	
1481	0	24856	
1482	0	24888	
1483	0	24821	
1484	0	24712	
1485	0	24736	
1486	0	24592	
1487	0	24532	
1488	0	24502	
1489	0	24488	
1490	0	24468	
1491	0	24512	
1492	0	24472	
1493	0	24450	
1494	0	24280	
1495	0	24232	
1496	0	24200	
1497	0	24208	
1498	0	24136	
1499	0	24126	
1500	0	24040	
1501	0	24012	
1502	0	24044	
1503	0	23953	
1504	0	23936	
1505	0	23816	
1506	0	23624	
1507	0	23556	
1508	0	23376	
1509	0	23280	
1510	0	23264	
1511	0	23288	
1512	0	23312	
1513	0	23136	
1514	0	22992	
1515	0	23116	
1516	0	23092	
1517	0	22996	
1518	0	22888	
1519	0	22864	
1520	0	22708	
1521	0	22736	
1522	0	22660	
1523	0	22696	
1524	0	22524	
1525	0	22456	
1526	0	22506	
1527	0	22392	
1528	0	22404	
1529	0	22408	
1530	0	22384	
1531	0	22402	
1532	0	22404	
1533	0	22264	
1534	0	22228	
1535	0	22170	
1536	0	22276	
1537	0	22156	
1538	0	22156	
1539	0	22020	
1540	0	21972	
1541	0	21908	
1542	0	21940	
1543	0	21928	
1544	0	21840	
1545	0	21688	
1546	0	21708	
1547	0	21706	
1548	0	21656	
1549	0	21570	
1550	0	21580	
1551	0	21564	
1552	0	21556	
1553	0	21484	
1554	0	21396	
1555	0	21380	
1556	0	21452	
1557	0	21608	
1558	0	21564	
1559	0	21572	
1560	0	21628	
1561	0	21764	
1562	0	21780	
1563	0	21836	
1564	0	21800	
1565	0	21908	
1566	0	21912	
1567	0	21953	
1568	0	21956	
1569	0	21984	
1570	0	21938	
1571	0	22042	
1572	0	21956	
1573	0	21941	
1574	0	21944	
1575	0	21880	
1576	0	21876	
1577	0	21832	
1578	0	21878	
1579	0	21852	
1580	0	21852	
1581	0	21810	
1582	0	21860	
1583	0	21874	
1584	0	21812	
1585	0	21752	
1586	0	21788	
1587	0	21812	
1588	0	21890	
1589	0	21884	
1590	0	21844	
1591	0	21826	
1592	0	21848	
1593	0	21776	
1594	0	21796	
1595	0	21804	
1596	0	21877	
1597	0	21880	
1598	0	21956	
1599	0	21976	
1600	0	21920	
1601	0	22056	
1602	0	22074	
1603	0	22076	
1604	0	22153	
1605	0	22296	
1606	0	22316	
1607	0	22310	
1608	0	22408	
1609	0	22485	
1610	0	22604	
1611	0	22636	
1612	0	22676	
1613	0	22610	
1614	0	22632	
1615	0	22736	
1616	0	22788	
1617	0	22796	
1618	0	22772	
1619	0	22796	
1620	0	22842	
1621	0	22932	
1622	0	22904	
1623	0	22940	
1624	0	22988	
1625	0	23098	
1626	0	22948	
1627	0	23000	
1628	0	23100	
1629	0	23140	
1630	0	23138	
1631	0	23112	
1632	0	23144	
1633	0	23252	
1634	0	23212	
1635	0	23188	
1636	0	23248	
1637	0	23308	
1638	0	23309	
1639	0	23332	
1640	0	23304	
1641	0	23408	
1642	0	23440	
1643	0	23428	
1644	0	23402	
1645	0	23432	
1646	0	23476	
1647	0	23488	
1648	0	23492	
1649	0	23500	
1650	0	23570	
1651	0	23640	
1652	0	23664	
1653	0	23684	
1654	0	23712	
1655	0	23741	
1656	0	23712	
1657	0	23757	
1658	0	23760	
1659	0	23800	
1660	0	23744	
1661	0	23688	
1662	0	23674	
1663	0	23604	
1664	0	23636	
1665	0	23608	
1666	0	23610	
1667	0	23616	
1668	0	23612	
1669	0	23560	
1670	0	23622	
1671	0	23620	
1672	0	23553	
1673	0	23632	
1674	0	23576	
1675	0	23648	
1676	0	23596	
1677	0	23584	
1678	0	23584	
1679	0	23584	
1680	0	23612	
1681	0	23592	
1682	0	23608	
1683	0	23616	
1684	0	23588	
1685	0	23610	
1686	0	23588	
1687	0	23572	
1688	0	23584	
1689	0	23556	
1690	0	23548	
1691	0	23574	
1692	0	23548	
1693	0	23446	
1694	0	23552	
1695	0	23605	
1696	0	23604	
1697	0	23632	
1698	0	23617	
1699	0	23620	
1700	0	23620	
1701	0	23628	
1702	0	23634	
1703	0	23672	
1704	0	23660	
1705	0	23672	
1706	0	23708	
1707	0	23756	
1708	0	23748	
1709	0	23744	
1710	0	23724	
1711	0	23872	
1712	0	24096	
1713	0	24136	
1714	0	24176	
1715	0	24208	
1716	0	24148	
1717	0	24176	
1718	0	24274	
1719	0	24346	
1720	0	24352	
1721	0	24376	
1722	0	24360	
1723	0	24388	
1724	0	24500	
1725	0	24516	
1726	0	24540	
1727	0	24552	
1728	0	24632	
1729	0	24708	
1730	0	24680	
1731	0	24728	
1732	0	24864	
1733	0	25082	
1734	0	25194	
1735	0	25252	
1736	0	25360	
1737	0	25364	
1738	0	25440	
1739	0	25456	
1740	0	25492	
1741	0	25581	
1742	0	25624	
1743	0	25717	
1744	0	25756	
1745	0	25824	
1746	0	25868	
1747	0	25864	
1748	0	25978	
1749	0	26020	
1750	0	26136	
1751	0	26240	
1752	0	26260	
1753	0	26328	
1754	0	26416	
1755	0	26436	
1756	0	26440	
1757	0	26508	
1758	0	26540	
1759	0	26572	
1760	0	26532	
1761	0	26618	
1762	0	26672	
1763	0	26780	
1764	0	26736	
1765	0	26780	
1766	0	26856	
1767	0	26897	
1768	0	26988	
1769	0	27020	
1770	0	27060	
1771	0	27122	
1772	0	27152	
1773	0	27212	
1774	0	27212	
1775	0	27336	
1776	0	27356	
1777	0	27452	
1778	0	27509	
1779	0	27560	
1780	0	27572	
1781	0	27560	
1782	0	27596	
1783	0	27734	
1784	0	27672	
1785	0	27720	
1786	0	27761	
1787	0	27840	
1788	0	27840	
1789	0	27900	
1790	0	27884	
1791	0	27916	
1792	0	28032	
1793	0	27960	
1794	0	27976	
1795	0	28021	
1796	0	28000	
1797	0	28044	
1798	0	28084	
1799	0	28108	
1800	0	28100	
1801	0	28176	
1802	0	28120	
1803	0	28184	
1804	0	28260	
1805	0	28288	
1806	0	28308	
1807	0	28340	
1808	0	28416	
1809	0	28480	
1810	0	28448	
1811	0	28440	
1812	0	28428	
1813	0	28512	
1814	0	28545	
1815	0	28610	
1816	0	28608	
1817	0	28620	
1818	0	28688	
1819	0	28704	
1820	0	28720	
1821	0	28788	
1822	0	28788	
1823	0	28842	
1824	0	28816	
1825	0	28880	
1826	0	28928	
1827	0	28984	
1828	0	28970	
1829	0	29056	
1830	0	29052	
1831	0	29124	
1832	0	29130	
1833	0	29184	
1834	0	29236	
1835	0	29292	
1836	0	29316	
1837	0	29368	
1838	0	29400	
1839	0	29424	
1840	0	29464	
1841	0	29532	
1842	0	29620	
1843	0	29664	
1844	0	29600	
1845	0	29652	
1846	0	29688	
1847	0	29714	
1848	0	29776	
1849	0	29800	
1850	0	29788	
1851	0	29824	
1852	0	29848	
1853	0	29888	
1854	0	29912	
1855	0	29924	
1856	0	29992	
1857	0	30040	
1858	0	30092	
1859	0	30084	
1860	0	30132	
1861	0	30080	
1862	0	30138	
1863	0	30176	
1864	0	30172	
1865	0	30200	
1866	0	30240	
1867	0	30264	
1868	0	30248	
1869	0	30320	
1870	0	30348	
1871	0	30324	
1872	0	30360	
1873	0	30344	
1874	0	30384	
1875	0	30356	
1876	0	30400	
1877	0	30416	
1878	0	30400	
1879	0	30424	
1880	0	30440	
1881	0	30448	
1882	0	30440	
1883	0	30452	
1884	0	30496	
1885	0	30520	
1886	0	30548	
1887	0	30528	
1888	0	30576	
1889	0	30616	
1890	0	30608	
1891	0	30600	
1892	0	30648	
1893	0	30698	
1894	0	30684	
1895	0	30656	
1896	0	30692	
1897	0	30736	
1898	0	30704	
1899	0	30696	
1900	0	30728	
1901	0	30780	
1902	0	30756	
1903	0	30828	
1904	0	30800	
1905	0	30816	
1906	0	30888	
1907	0	30852	
1908	0	30864	
1909	0	30860	
1910	0	30896	
1911	0	30872	
1912	0	30904	
1913	0	30964	
1914	0	30968	
1915	0	30960	
1916	0	30968	
1917	0	31024	
1918	0	31028	
1919	0	30972	
1920	0	31024	
1921	0	31040	
1922	0	31060	
1923	0	31008	
1924	0	31112	
1925	0	31116	
1926	0	31160	
1927	0	31146	
1928	0	31169	
1929	0	31164	
1930	0	31160	
1931	0	31192	
1932	0	31212	
1933	0	31188	
1934	0	31204	
1935	0	31324	
1936	0	31308	
1937	0	31262	
1938	0	31288	
1939	0	31301	
1940	0	31296	
1941	0	31292	
1942	0	31316	
1943	0	31416	
1944	0	31344	
1945	0	31388	
1946	0	31356	
1947	0	31392	
1948	0	31360	
1949	0	31380	
1950	0	31392	
1951	0	31344	
1952	0	31408	
1953	0	31384	
1954	0	31424	
1955	0	31416	
1956	0	31432	
1957	0	31448	
1958	0	31424	
1959	0	31416	
1960	0	31448	
1961	0	31494	
1962	0	31432	
1963	0	31472	
1964	0	31492	
1965	0	31552	
1966	0	31540	
1967	0	31558	
1968	0	31564	
1969	0	31556	
1970	0	31596	
1971	0	31596	
1972	0	31624	
1973	0	31692	
1974	0	31708	
1975	0	31736	
1976	0	31682	
1977	0	31505	
1978	0	31516	
1979	0	31592	
1980	0	31596	
1981	0	31692	
1982	0	31768	
1983	0	31796	
1984	0	31756	
1985	0	31770	
1986	0	31776	
1987	0	31776	
1988	0	31796	
1989	0	31852	
1990	0	31788	
1991	0	31856	
1992	0	31812	
1993	0	31900	
1994	0	31860	
1995	0	31884	
1996	0	31904	
1997	0	31930	
1998	0	31980	
1999	0	31920	
2000	0	31954	
2001	0	31976	
2002	0	31920	
2003	0	31972	
2004	0	31968	
2005	0	32012	
2006	0	32020	
2007	0	32044	
2008	0	32020	
2009	0	32001	
2010	0	32008	
2011	0	32044	
2012	0	32066	
2013	0	32028	
2014	0	32088	
2015	0	32060	
2016	0	32072	
2017	0	32048	
2018	0	32080	
2019	0	32012	
2020	0	32076	
2021	0	32068	
2022	0	32112	
2023	0	32044	
2024	0	32008	
2025	0	31988	
2026	0	32000	
2027	0	31988	
2028	0	31988	
2029	0	31984	
2030	0	32060	
2031	0	31984	
2032	0	31992	
2033	0	31992	
2034	0	32000	
2035	0	31956	
2036	0	31964	
2037	0	31977	
2038	0	31864	
2039	0	31972	
2040	0	31992	
2041	0	31981	
2042	0	32008	
2043	0	31920	
2044	0	31968	
2045	0	31968	
2046	0	31972	
2047	0	32008	
2048	0	31984	
2049	0	32000	
2050	0	31992	
2051	0	32024	
2052	0	31944	
2053	0	31996	
2054	0	31984	
2055	0	32040	
2056	0	32028	
2057	0	32076	
2058	0	32056	
2059	0	32052	
2060	0	32088	
2061	0	32088	
2062	0	32060	
2063	0	32064	
2064	0	32144	
2065	0	32124	
2066	0	32156	
2067	0	32160	
2068	0	32160	
2069	0	32194	
2070	0	32224	
2071	0	32156	
2072	0	32224	
2073	0	32236	
2074	0	32234	
2075	0	32276	
2076	0	32296	
2077	0	32320	
2078	0	32360	
2079	0	32268	
2080	0	32352	
2081	0	32418	
2082	0	32496	
2083	0	32468	
2084	0	32504	
2085	0	32584	
2086	0	32604	
2087	0	32620	
2088	0	32660	
2089	0	32624	
2090	0	32752	
2091	0	32748	
2092	0	32676	
2093	0	32712	
2094	0	32736	
2095	0	32796	
2096	0	32780	
2097	0	32780	
2098	0	32840	
2099	0	32836	
2100	0	32852	
2101	0	32904	
2102	0	32752	
2103	0	32864	
2104	0	32876	
2105	0	32908	
2106	0	32876	
2107	0	32920	
2108	0	32840	
2109	0	32912	
2110	0	32914	
2111	0	32858	
2112	0	32864	
2113	0	32852	
2114	0	32792	
2115	0	32720	
2116	0	32744	
2117	0	32720	
2118	0	32696	
2119	0	32644	
2120	0	32650	
2121	0	32632	
2122	0	32584	
2123	0	32616	
2124	0	32624	
2125	0	32604	
2126	0	32628	
2127	0	32656	
2128	0	32668	
2129	0	32616	
2130	0	32632	
2131	0	32640	
2132	0	32608	
2133	0	32656	
2134	0	32632	
2135	0	32588	
2136	0	32568	
2137	0	32570	
2138	0	32592	
2139	0	32610	
2140	0	32584	
2141	0	32636	
2142	0	32632	
2143	0	32576	
2144	0	32568	
2145	0	32592	
2146	0	32576	
2147	0	32568	
2148	0	32560	
2149	0	32572	
2150	0	32564	
2151	0	32588	
2152	0	32556	
2153	0	32558	
2154	0	32578	
2155	0	32584	
2156	0	32608	
2157	0	32580	
2158	0	32612	
2159	0	32600	
2160	0	32624	
2161	0	32608	
2162	0	32596	
2163	0	32608	
2164	0	32656	
2165	0	32652	
2166	0	32632	
2167	0	32612	
2168	0	32596	
2169	0	32596	
2170	0	32628	
2171	0	32602	
2172	0	32624	
2173	0	32592	
2174	0	32604	
2175	0	32568	
2176	0	32554	
2177	0	32630	
2178	0	32612	
2179	0	32584	
2180	0	32604	
2181	0	32624	
2182	0	32556	
2183	0	32572	
2184	0	32564	
2185	0	32572	
2186	0	32596	
2187	0	32640	
2188	0	32576	
2189	0	32588	
2190	0	32564	
2191	0	32532	
2192	0	32584	
2193	0	32496	
2194	0	32484	
2195	0	32528	
2196	0	32520	
2197	0	32522	
2198	0	32492	
2199	0	32508	
2200	0	32520	
2201	0	32516	
2202	0	32464	
2203	0	32452	
2204	0	32428	
2205	0	32440	
2206	0	32476	
2207	0	32500	
2208	0	32448	
2209	0	32440	
2210	0	32464	
2211	0	32456	
2212	0	32474	
2213	0	32474	
2214	0	32472	
2215	0	32504	
2216	0	32528	
2217	0	32512	
2218	0	32540	
2219	0	32556	
2220	0	32540	
2221	0	32568	
2222	0	32520	
2223	0	32602	
2224	0	32560	
2225	0	32602	
2226	0	32616	
2227	0	32610	
2228	0	32692	
2229	0	32692	
2230	0	32648	
2231	0	32712	
2232	0	32712	
2233	0	32688	
2234	0	32704	
2235	0	32736	
2236	0	32712	
2237	0	32712	
2238	0	32754	
2239	0	32768	
2240	0	32728	
2241	0	32780	
2242	0	32804	
2243	0	32776	
2244	0	32788	
2245	0	32768	
2246	0	32836	
2247	0	32824	
2248	0	32840	
2249	0	32860	
2250	0	32834	
2251	0	32840	
2252	0	32868	
2253	0	32888	
2254	0	32816	
2255	0	32896	
2256	0	32884	
2257	0	32868	
2258	0	32906	
2259	0	32945	
2260	0	32928	
2261	0	32916	
2262	0	32934	
2263	0	32944	
2264	0	32920	
2265	0	32968	
2266	0	32988	
2267	0	33004	
2268	0	33036	
2269	0	33012	
2270	0	32972	
2271	0	32964	
2272	0	33012	
2273	0	33012	
2274	0	32980	
2275	0	33082	
2276	0	33064	
2277	0	33096	
2278	0	33060	
2279	0	33092	
2280	0	33124	
2281	0	33128	
2282	0	33114	
2283	0	33200	
2284	0	33204	
2285	0	33240	
2286	0	33336	
2287	0	33308	
2288	0	33344	
2289	0	33332	
2290	0	33340	
2291	0	33368	
2292	0	33424	
2293	0	33384	
2294	0	33392	
2295	0	33360	
2296	0	33400	
2297	0	33424	
2298	0	33472	
2299	0	33500	
2300	0	33480	
2301	0	33440	
2302	0	33520	
2303	0	33556	
2304	0	33532	
2305	0	33532	
2306	0	33540	
2307	0	33548	
2308	0	33548	
2309	0	33600	
2310	0	33604	
2311	0	33596	
2312	0	33568	
2313	0	33576	
2314	0	33612	
2315	0	33592	
2316	0	33628	
2317	0	33608	
2318	0	33592	
2319	0	33628	
2320	0	33656	
2321	0	33680	
2322	0	33656	
2323	0	33664	
2324	0	33674	
2325	0	33616	
2326	0	33644	
2327	0	33672	
2328	0	33684	
2329	0	33696	
2330	0	33696	
2331	0	33684	
2332	0	33656	
2333	0	33700	
2334	0	33712	
2335	0	33712	
2336	0	33704	
2337	0	33780	
2338	0	33760	
2339	0	33804	
2340	0	33808	
2341	0	33760	
2342	0	33792	
2343	0	33812	
2344	0	33772	
2345	0	33792	
2346	0	33792	
2347	0	33780	
2348	0	33740	
2349	0	33816	
2350	0	33780	
2351	0	33824	
2352	0	33802	
2353	0	33792	
2354	0	33780	
2355	0	33790	
2356	0	33796	
2357	0	33776	
2358	0	33832	
2359	0	33840	
2360	0	33864	
2361	0	33860	
2362	0	33852	
2363	0	33840	
2364	0	33864	
2365	0	33848	
2366	0	33816	
2367	0	33824	
2368	0	33844	
2369	0	33808	
2370	0	33852	
2371	0	33824	
2372	0	33864	
2373	0	33836	
2374	0	33888	
2375	0	33850	
2376	0	33844	
2377	0	33880	
2378	0	33864	
2379	0	33906	
2380	0	33888	
2381	0	33924	
2382	0	33868	
2383	0	33912	
2384	0	33928	
2385	0	33900	
2386	0	33940	
2387	0	33936	
2388	0	33920	
2389	0	33908	
2390	0	33904	
2391	0	33928	
2392	0	33928	
2393	0	33928	
2394	0	33940	
2395	0	33880	
2396	0	33884	
2397	0	33900	
2398	0	33888	
2399	0	33896	
2400	0	33888	
2401	0	33892	
2402	0	33872	
2403	0	33904	
2404	0	33900	
2405	0	33912	
2406	0	33876	
2407	0	33868	
2408	0	33912	
2409	0	33920	
2410	0	33928	
2411	0	33936	
2412	0	33877	
2413	0	33932	
2414	0	33896	
2415	0	33928	
2416	0	33888	
2417	0	33940	
2418	0	33944	
2419	0	33956	
2420	0	33946	
2421	0	33928	
2422	0	33970	
2423	0	33988	
2424	0	33936	
2425	0	33988	
2426	0	33964	
2427	0	33980	
2428	0	33996	
2429	0	34020	
2430	0	34060	
2431	0	34048	
2432	0	34092	
2433	0	34040	
2434	0	34104	
2435	0	34132	
2436	0	34216	
2437	0	34216	
2438	0	34244	
2439	0	34196	
2440	0	34244	
2441	0	34252	
2442	0	34256	
2443	0	34248	
2444	0	34244	
2445	0	34284	
2446	0	34292	
2447	0	34272	
2448	0	34316	
2449	0	34368	
2450	0	34352	
2451	0	34424	
2452	0	34388	
2453	0	34396	
2454	0	34384	
2455	0	34380	
2456	0	34368	
2457	0	34372	
2458	0	34408	
2459	0	34424	
2460	0	34416	
2461	0	34388	
2462	0	34384	
2463	0	34400	
2464	0	34448	
2465	0	34408	
2466	0	34424	
2467	0	34408	
2468	0	34504	
2469	0	34460	
2470	0	34460	
2471	0	34416	
2472	0	34456	
2473	0	34496	
2474	0	34524	
2475	0	34496	
2476	0	34496	
2477	0	34496	
2478	0	34504	
2479	0	34500	
2480	0	34536	
2481	0	34488	
2482	0	34508	
2483	0	34504	
2484	0	34508	
2485	0	34484	
2486	0	34480	
2487	0	34488	
2488	0	34492	
2489	0	34496	
2490	0	34524	
2491	0	34500	
2492	0	34544	
2493	0	34556	
2494	0	34520	
2495	0	34544	
2496	0	34548	
2497	0	34544	
2498	0	34528	
2499	0	34644	
2500	0	34600	
2501	0	34608	
2502	0	34648	
2503	0	34684	
2504	0	34692	
2505	0	34640	
2506	0	34700	
2507	0	34688	
2508	0	34688	
2509	0	34728	
2510	0	34760	
2511	0	34740	
2512	0	34732	
2513	0	34740	
2514	0	34740	
2515	0	34696	
2516	0	34712	
2517	0	34700	
2518	0	34708	
2519	0	34760	
2520	0	34756	
2521	0	34688	
2522	0	34712	
2523	0	34690	
2524	0	34738	
2525	0	34714	
2526	0	34724	
2527	0	34700	
2528	0	34716	
2529	0	34724	
2530	0	34712	
2531	0	34712	
2532	0	34716	
2533	0	34704	
2534	0	34720	
2535	0	34696	
2536	0	34712	
2537	0	34712	
2538	0	34732	
2539	0	34728	
2540	0	34692	
2541	0	34692	
2542	0	34676	
2543	0	34736	
2544	0	34724	
2545	0	34724	
2546	0	34728	
2547	0	34748	
2548	0	34752	
2549	0	34700	
2550	0	34712	
2551	0	34760	
2552	0	34768	
2553	0	34766	
2554	0	34708	
2555	0	34744	
2556	0	34752	
2557	0	34744	
2558	0	34732	
2559	0	34780	
2560	0	34792	
2561	0	34776	
2562	0	34800	
2563	0	34749	
2564	0	34760	
2565	0	34760	
2566	0	34776	
2567	0	34764	
2568	0	34776	
2569	0	34816	
2570	0	34824	
2571	0	34812	
2572	0	34832	
2573	0	34852	
2574	0	34848	
2575	0	34888	
2576	0	34860	
2577	0	34888	
2578	0	34860	
2579	0	34908	
2580	0	34908	
2581	0	34884	
2582	0	34896	
2583	0	34916	
2584	0	34936	
2585	0	34912	
2586	0	34904	
2587	0	34932	
2588	0	34940	
2589	0	34968	
2590	0	34916	
2591	0	34940	
2592	0	34972	
2593	0	34964	
2594	0	34992	
2595	0	35008	
2596	0	35004	
2597	0	34984	
2598	0	34976	
2599	0	35024	
2600	0	35020	
2601	0	34960	
2602	0	35056	
2603	0	35008	
2604	0	34992	
2605	0	35008	
2606	0	35060	
2607	0	35048	
2608	0	35024	
2609	0	35044	
2610	0	35080	
2611	0	35024	
2612	0	35060	
2613	0	35072	
2614	0	35064	
2615	0	35048	
2616	0	35076	
2617	0	35116	
2618	0	35072	
2619	0	35072	
2620	0	35104	
2621	0	35096	
2622	0	35148	
2623	0	35128	
2624	0	35144	
2625	0	35152	
2626	0	35092	
2627	0	35132	
2628	0	35120	
2629	0	35100	
2630	0	35140	
2631	0	35164	
2632	0	35164	
2633	0	35104	
2634	0	35136	
2635	0	35138	
2636	0	35168	
2637	0	35124	
2638	0	35112	
2639	0	35124	
2640	0	35136	
2641	0	35176	
2642	0	35160	
2643	0	35152	
2644	0	35176	
2645	0	35132	
2646	0	35184	
2647	0	35192	
2648	0	35188	
2649	0	35196	
2650	0	35196	
2651	0	35168	
2652	0	35200	
2653	0	35192	
2654	0	35160	
2655	0	35172	
2656	0	35216	
2657	0	35192	
2658	0	35200	
2659	0	35220	
2660	0	35184	
2661	0	35220	
2662	0	35224	
2663	0	35208	
2664	0	35184	
2665	0	35192	
2666	0	35192	
2667	0	35192	
2668	0	35224	
2669	0	35220	
2670	0	35224	
2671	0	35188	
2672	0	35232	
2673	0	35232	
2674	0	35224	
2675	0	35184	
2676	0	35216	
2677	0	35220	
2678	0	35152	
2679	0	35208	
2680	0	35196	
2681	0	35184	
2682	0	35168	
2683	0	35200	
2684	0	35212	
2685	0	35184	
2686	0	35212	
2687	0	35200	
2688	0	35192	
2689	0	35192	
2690	0	35160	
2691	0	35236	
2692	0	35216	
2693	0	35158	
2694	0	35172	
2695	0	35204	
2696	0	35224	
2697	0	35184	
2698	0	35152	
2699	0	35184	
2700	0	35200	
2701	0	35192	
2702	0	35276	
2703	0	35200	
2704	0	35228	
2705	0	35196	
2706	0	35180	
2707	0	35216	
2708	0	35168	
2709	0	35164	
2710	0	35220	
2711	0	35228	
2712	0	35172	
2713	0	35212	
2714	0	35224	
2715	0	35200	
2716	0	35184	
2717	0	35168	
2718	0	35184	
2719	0	35172	
2720	0	35216	
2721	0	35212	
2722	0	35152	
2723	0	35192	
2724	0	35212	
2725	0	35204	
2726	0	35196	
2727	0	35176	
2728	0	35188	
2729	0	35200	
2730	0	35212	
2731	0	35188	
2732	0	35228	
2733	0	35216	
2734	0	35224	
2735	0	35232	
2736	0	35220	
2737	0	35184	
2738	0	35216	
2739	0	35240	
2740	0	35212	
2741	0	35228	
2742	0	35196	
2743	0	35248	
2744	0	35250	
2745	0	35212	
2746	0	35208	
2747	0	35200	
2748	0	35224	
2749	0	35192	
2750	0	35192	
2751	0	35256	
2752	0	35164	
2753	0	35200	
2754	0	35228	
2755	0	35192	
2756	0	35172	
2757	0	35240	
2758	0	35196	
2759	0	35224	
2760	0	35160	
2761	0	35168	
2762	0	35224	
2763	0	35228	
2764	0	35236	
2765	0	35200	
2766	0	35248	
2767	0	35240	
2768	0	35232	
2769	0	35216	
2770	0	35236	
2771	0	35196	
2772	0	35192	
2773	0	35208	
2774	0	35220	
2775	0	35160	
2776	0	35196	
2777	0	35184	
2778	0	35172	
2779	0	35196	
2780	0	35188	
2781	0	35208	
2782	0	35192	
2783	0	35208	
2784	0	35180	
2785	0	35204	
2786	0	35188	
2787	0	35210	
2788	0	35242	
2789	0	35186	
2790	0	35216	
2791	0	35168	
2792	0	35212	
2793	0	35236	
2794	0	35208	
2795	0	35172	
2796	0	35180	
2797	0	35176	
2798	0	35168	
2799	0	35216	
2800	0	35170	
2801	0	35200	
2802	0	35192	
2803	0	35232	
2804	0	35196	
2805	0	35188	
2806	0	35194	
2807	0	35248	
2808	0	35212	
2809	0	35240	
2810	0	35208	
2811	0	35284	
2812	0	35216	
2813	0	35264	
2814	0	35264	
2815	0	35292	
2816	0	35353	
2817	0	35356	
2818	0	35336	
2819	0	35396	
2820	0	35378	
2821	0	35404	
2822	0	35380	
2823	0	35412	
2824	0	35444	
2825	0	35436	
2826	0	35416	
2827	0	35412	
2828	0	35436	
2829	0	35408	
2830	0	35432	
2831	0	35460	
2832	0	35440	
2833	0	35448	
2834	0	35440	
2835	0	35472	
2836	0	35472	
2837	0	35416	
2838	0	35460	
2839	0	35460	
2840	0	35448	
2841	0	35448	
2842	0	35456	
2843	0	35472	
2844	0	35456	
2845	0	35436	
2846	0	35464	
2847	0	35466	
2848	0	35424	
2849	0	35456	
2850	0	35436	
2851	0	35424	
2852	0	35412	
2853	0	35392	
2854	0	35484	
2855	0	35424	
2856	0	35432	
2857	0	35440	
2858	0	35424	
2859	0	35408	
2860	0	35392	
2861	0	35412	
2862	0	35420	
2863	0	35400	
2864	0	35404	
2865	0	35428	
2866	0	35406	
2867	0	35460	
2868	0	35428	
2869	0	35418	
2870	0	35520	
2871	0	35456	
2872	0	35444	
2873	0	35444	
2874	0	35456	
2875	0	35466	
2876	0	35448	
2877	0	35436	
2878	0	35436	
2879	0	35436	
2880	0	35432	
2881	0	35432	
2882	0	35424	
2883	0	35488	
2884	0	35448	
2885	0	35470	
2886	0	35440	
2887	0	35484	
2888	0	35444	
2889	0	35456	
2890	0	35432	
2891	0	35472	
2892	0	35456	
2893	0	35512	
2894	0	35472	
2895	0	35456	
2896	0	35480	
2897	0	35460	
2898	0	35468	
2899	0	35428	
2900	0	35448	
2901	0	35468	
2902	0	35500	
2903	0	35456	
2904	0	35452	
2905	0	35484	
2906	0	35480	
2907	0	35496	
2908	0	35452	
2909	0	35468	
2910	0	35436	
2911	0	35408	
2912	0	35460	
2913	0	35384	
2914	0	35380	
2915	0	35368	
2916	0	35408	
2917	0	35432	
2918	0	35436	
2919	0	35404	
2920	0	35400	
2921	0	35384	
2922	0	35448	
2923	0	35388	
2924	0	35410	
2925	0	35376	
2926	0	35384	
2927	0	35392	
2928	0	35400	
2929	0	35352	
2930	0	35376	
2931	0	35396	
2932	0	35396	
2933	0	35404	
2934	0	35400	
2935	0	35416	
2936	0	35402	
2937	0	35380	
2938	0	35376	
2939	0	35420	
2940	0	35444	
2941	0	35440	
2942	0	35440	
2943	0	35436	
2944	0	35488	
2945	0	35504	
2946	0	35496	
2947	0	35520	
2948	0	35492	
2949	0	35480	
2950	0	35536	
2951	0	35520	
2952	0	35484	
2953	0	35488	
2954	0	35528	
2955	0	35508	
2956	0	35540	
2957	0	35528	
2958	0	35564	
2959	0	35592	
2960	0	35552	
2961	0	35556	
2962	0	35672	
2963	0	35672	
2964	0	35652	
2965	0	35616	
2966	0	35656	
2967	0	35648	
2968	0	35728	
2969	0	35672	
2970	0	35704	
2971	0	35752	
2972	0	35816	
2973	0	35816	
2974	0	35828	
2975	0	35848	
2976	0	35880	
2977	0	35924	
2978	0	35936	
2979	0	35984	
2980	0	36000	
2981	0	36100	
2982	0	36140	
2983	0	36200	
2984	0	36216	
2985	0	36256	
2986	0	36260	
2987	0	36352	
2988	0	36492	
2989	0	36748	
2990	0	36800	
2991	0	36996	
2992	0	37152	
2993	0	37332	
2994	0	37488	
2995	0	37532	
2996	0	37632	
2997	0	37882	
2998	0	38280	
2999	0	38544	
3000	0	39016	
3001	0	39208	
3002	0	39552	
3003	0	39992	
3004	0	40332	
3005	0	40756	
3006	0	41096	
3007	0	41552	
3008	0	41956	
3009	0	42408	
3010	0	42900	
3011	0	43432	
3012	0	44032	
3013	0	44500	
3014	0	44900	
3015	0	45204	
3016	0	45712	
3017	0	46180	
3018	0	46680	
3019	0	47212	
3020	0	47624	
3021	0	48216	
3022	0	48728	
3023	0	49204	
3024	0	49536	
3025	0	49968	
3026	0	50444	
3027	0	50776	
3028	0	51172	
3029	0	51576	
3030	0	51860	
3031	0	52264	
3032	0	52632	
3033	0	52928	
3034	0	53360	
3035	0	53800	
3036	0	54148	
3037	0	54448	
3038	0	54724	
3039	0	55024	
3040	0	55296	
3041	0	55572	
3042	0	55832	
3043	0	56104	
3044	0	56368	
3045	0	56640	
3046	0	56952	
3047	0	57184	
3048	0	57400	
3049	0	57608	
3050	0	57832	
3051	0	58036	
3052	0	58240	
3053	0	58448	
3054	0	58616	
3055	0	58792	
3056	0	58976	
3057	0	59144	
3058	0	59308	
3059	0	59440	
3060	0	59584	
3061	0	59752	
3062	0	59920	
3063	0	60032	
3064	0	60200	
3065	0	60328	
3066	0	60456	
3067	0	60560	
3068	0	60692	
3069	0	60832	
3070	0	60936	
3071	0	61048	
3072	0	61144	
3073	0	61244	
3074	0	61348	
3075	0	61424	
3076	0	61524	
3077	0	61592	
3078	0	61664	
3079	0	61760	
3080	0	61820	
3081	0	61912	
3082	0	61976	
3083	0	62032	
3084	0	62120	
3085	0	62176	
3086	0	62252	
3087	0	62304	
3088	0	62360	
3089	0	62432	
3090	0	62472	
3091	0	62512	
3092	0	62560	
3093	0	62608	
3094	0	62672	
3095	0	62720	
3096	0	62736	
3097	0	62784	
3098	0	62824	
3099	0	62888	
3100	0	62920	
3101	0	62944	
3102	0	62976	
3103	0	63008	
3104	0	63032	
3105	0	63064	
3106	0	63096	
3107	0	63124	
3108	0	63144	
3109	0	63184	
3110	0	63200	
3111	0	63224	
3112	0	63240	
3113	0	63248	
3114	0	63248	
3115	0	63312	
3116	0	63320	
3117	0	63336	
3118	0	63376	
3119	0	63388	
3120	0	63424	
3121	0	63420	
3122	0	63448	
3123	0	63496	
3124	0	63472	
3125	0	63504	
3126	0	63508	
3127	0	63520	
3128	0	63540	
3129	0	63552	
3130	0	63576	
3131	0	63584	
3132	0	63600	
3133	0	63608	
3134	0	63624	
3135	0	63632	
3136	0	63660	
3137	0	63672	
3138	0	63664	
3139	0	63680	
3140	0	63704	
3141	0	63712	
3142	0	63712	
3143	0	63728	
3144	0	63728	
3145	0	63748	
3146	0	63760	
3147	0	63768	
3148	0	63768	
3149	0	63776	
3150	0	63820	
3151	0	63808	
3152	0	63808	
3153	0	63812	
3154	0	63800	
3155	0	63828	
3156	0	63840	
3157	0	63840	
3158	0	63848	
3159	0	63856	
3160	0	63856	
3161	0	63876	
3162	0	63900	
3163	0	63904	
3164	0	63896	
3165	0	63912	
3166	0	63904	
3167	0	63900	
3168	0	63904	
3169	0	63924	
3170	0	63936	
3171	0	63944	
3172	0	63944	
3173	0	63940	
3174	0	63952	
3175	0	63956	
3176	0	63960	
3177	0	63944	
3178	0	63968	
3179	0	63940	
3180	0	63984	
3181	0	63976	
3182	0	63996	
3183	0	63992	
3184	0	63992	
3185	0	64000	
3186	0	64016	
3187	0	64032	
3188	0	64016	
3189	0	64016	
3190	0	64028	
3191	0	64032	
3192	0	64020	
3193	0	64036	
3194	0	64032	
3195	0	64060	
3196	0	64048	
3197	0	64072	
3198	0	64064	
3199	0	64072	
3200	0	64068	
3201	0	64088	
3202	0	64080	
3203	0	64088	
3204	0	64096	
3205	0	64080	
3206	0	64096	
3207	0	64108	
3208	0	64096	
3209	0	64124	
3210	0	64100	
3211	0	64120	
3212	0	64116	
3213	0	64120	
3214	0	64128	
3215	0	64128	
3216	0	64116	
3217	0	64156	
3218	0	64144	
3219	0	64152	
3220	0	64152	
3221	0	64156	
3222	0	64160	
3223	0	64164	
3224	0	64176	
3225	0	64168	
3226	0	64176	
3227	0	64168	
3228	0	64176	
3229	0	64176	
3230	0	64188	
3231	0	64184	
3232	0	64192	
3233	0	64208	
3234	0	64164	
3235	0	64184	
3236	0	64200	
3237	0	64208	
3238	0	64192	
3239	0	64208	
3240	0	64208	
3241	0	64200	
3242	0	64196	
3243	0	64224	
3244	0	64200	
3245	0	64212	
3246	0	64200	
3247	0	64216	
3248	0	64208	
3249	0	64228	
3250	0	64240	
3251	0	64216	
3252	0	64216	
3253	0	64232	
3254	0	64224	
3255	0	64248	
3256	0	64228	
3257	0	64248	
3258	0	64224	
3259	0	64248	
3260	0	64248	
3261	0	64256	
3262	0	64260	
3263	0	64248	
3264	0	64256	
3265	0	64248	
3266	0	64264	
3267	0	64272	
3268	0	64260	
3269	0	64260	
3270	0	64264	
3271	0	64260	
3272	0	64288	
3273	0	64272	
3274	0	64272	
3275	0	64296	
3276	0	64288	
3277	0	64272	
3278	0	64288	
3279	0	64288	
3280	0	64288	
3281	0	64288	
3282	0	64296	
3283	0	64296	
3284	0	64288	
3285	0	64292	
3286	0	64308	
3287	0	64288	
3288	0	64296	
3289	0	64296	
3290	0	64304	
3291	0	64304	
3292	0	64300	
3293	0	64308	
3294	0	64312	
3295	0	64312	
3296	0	64324	
3297	0	64328	
3298	0	64336	
3299	0	64320	
3300	0	64332	
3301	0	64332	
3302	0	64336	
3303	0	64320	
3304	0	64328	
3305	0	64344	
3306	0	64348	
3307	0	64328	
3308	0	64336	
3309	0	64332	
3310	0	64340	
3311	0	64352	
3312	0	64356	
3313	0	64372	
3314	0	64344	
3315	0	64360	
3316	0	64360	
3317	0	64372	
3318	0	64360	
3319	0	64360	
3320	0	64376	
3321	0	64356	
3322	0	64388	
3323	0	64368	
3324	0	64392	
3325	0	64372	
3326	0	64376	
3327	0	64384	
3328	0	64384	
3329	0	64352	
3330	0	64376	
3331	0	64396	
3332	0	64380	
3333	0	64384	
3334	0	64408	
3335	0	64388	
3336	0	64392	
3337	0	64400	
3338	0	64396	
3339	0	64404	
3340	0	64416	
3341	0	64400	
3342	0	64408	
3343	0	64400	
3344	0	64396	
3345	0	64392	
3346	0	64400	
3347	0	64408	
3348	0	64412	
3349	0	64408	
3350	0	64400	
3351	0	64420	
3352	0	64416	
3353	0	64404	
3354	0	64400	
3355	0	64408	
3356	0	64392	
3357	0	64400	
3358	0	64408	
3359	0	64420	
3360	0	64416	
3361	0	64440	
3362	0	64416	
3363	0	64428	
3364	0	64424	
3365	0	64432	
3366	0	64420	
3367	0	64440	
3368	0	64424	
3369	0	64440	
3370	0	64440	
3371	0	64440	
3372	0	64432	
3373	0	64448	
3374	0	64440	
3375	0	64440	
3376	0	64444	
3377	0	64448	
3378	0	64436	
3379	0	64424	
3380	0	64448	
3381	0	64432	
3382	0	64464	
3383	0	64456	
3384	0	64464	
3385	0	64464	
3386	0	64456	
3387	0	64456	
3388	0	64468	
3389	0	64460	
3390	0	64468	
3391	0	64464	
3392	0	64472	
3393	0	64488	
3394	0	64464	
3395	0	64488	
3396	0	64474	
3397	0	64456	
3398	0	64448	
3399	0	64480	
3400	0	64480	
3401	0	64464	
3402	0	64480	
3403	0	64480	
3404	0	64480	
3405	0	64472	
3406	0	64448	
3407	0	64464	
3408	0	64488	
3409	0	64480	
3410	0	64476	
3411	0	64496	
3412	0	64488	
3413	0	64500	
3414	0	64496	
3415	0	64488	
3416	0	64488	
3417	0	64480	
3418	0	64488	
3419	0	64488	
3420	0	64496	
3421	0	64496	
3422	0	64504	
3423	0	64504	
3424	0	64496	
3425	0	64496	
3426	0	64496	
3427	0	64496	
3428	0	64512	
3429	0	64492	
3430	0	64500	
3431	0	64504	
3432	0	64504	
3433	0	64500	
3434	0	64492	
3435	0	64520	
3436	0	64512	
3437	0	64512	
3438	0	64504	
3439	0	64500	
3440	0	64504	
3441	0	64512	
3442	0	64496	
3443	0	64500	
3444	0	64496	
3445	0	64516	
3446	0	64508	
3447	0	64496	
3448	0	64524	
3449	0	64504	
3450	0	64504	
3451	0	64508	
3452	0	64512	
3453	0	64504	
3454	0	64512	
3455	0	64496	
3456	0	64512	
3457	0	64524	
3458	0	64536	
3459	0	64528	
3460	0	64536	
3461	0	64528	
3462	0	64520	
3463	0	64528	
3464	0	64528	
3465	0	64520	
3466	0	64520	
3467	0	64528	
3468	0	64520	
3469	0	64528	
3470	0	64528	
3471	0	64528	
3472	0	64528	
3473	0	64528	
3474	0	64528	
3475	0	64528	
3476	0	64528	
3477	0	64512	
3478	0	64536	
3479	0	64528	
3480	0	64528	
3481	0	64536	
3482	0	64516	
3483	0	64520	
3484	0	64520	
3485	0	64528	
3486	0	64532	
3487	0	64536	
3488	0	64536	
3489	0	64532	
3490	0	64548	
3491	0	64536	
3492	0	64532	
3493	0	64548	
3494	0	64532	
3495	0	64536	
3496	0	64528	
3497	0	64532	
3498	0	64520	
3499	0	64528	
3500	0	64528	
3501	0	64532	
3502	0	64520	
3503	0	64544	
3504	0	64532	
3505	0	64528	
3506	0	64540	
3507	0	64536	
3508	0	64528	
3509	0	64544	
3510	0	64536	
3511	0	64544	
3512	0	64544	
3513	0	64528	
3514	0	64536	
3515	0	64544	
3516	0	64544	
3517	0	64536	
3518	0	64536	
3519	0	64532	
3520	0	64536	
3521	0	64536	
3522	0	64536	
3523	0	64536	
3524	0	64540	
3525	0	64544	
3526	0	64528	
3527	0	64532	
3528	0	64544	
3529	0	64544	
3530	0	64544	
3531	0	64544	
3532	0	64552	
3533	0	64548	
3534	0	64536	
3535	0	64548	
3536	0	64528	
3537	0	64532	
3538	0	64548	
3539	0	64536	
3540	0	64532	
3541	0	64552	
3542	0	64560	
3543	0	64544	
3544	0	64556	
3545	0	64540	
3546	0	64540	
3547	0	64544	
3548	0	64552	
3549	0	64544	
3550	0	64544	
3551	0	64528	
3552	0	64528	
3553	0	64536	
3554	0	64544	
3555	0	64552	
3556	0	64560	
3557	0	64544	
3558	0	64536	
3559	0	64544	
3560	0	64544	
3561	0	64556	
3562	0	64552	
3563	0	64536	
3564	0	64544	
3565	0	64552	
3566	0	64552	
3567	0	64564	
3568	0	64570	
3569	0	64560	
3570	0	64568	
3571	0	64560	
3572	0	64556	
3573	0	64564	
3574	0	64560	
3575	0	64552	
3576	0	64560	
3577	0	64556	
3578	0	64564	
3579	0	64560	
3580	0	64552	
3581	0	64560	
3582	0	64536	
3583	0	64560	
3584	0	64556	
3585	0	64544	
3586	0	64556	
3587	0	64552	
3588	0	64552	
3589	0	64548	
3590	0	64552	
3591	0	64568	
3592	0	64540	
3593	0	64560	
3594	0	64544	
3595	0	64560	
3596	0	64552	
3597	0	64560	
3598	0	64560	
3599	0	64552	
3600	0	64544	
3601	0	64552	
3602	0	64560	
3603	0	64544	
3604	0	64552	
3605	0	64556	
3606	0	64552	
3607	0	64544	
3608	0	64560	
3609	0	64556	
3610	0	64548	
3611	0	64572	
3612	0	64560	
3613	0	64560	
3614	0	64552	
3615	0	64544	
3616	0	64560	
3617	0	64552	
3618	0	64560	
3619	0	64552	
3620	0	64556	
3621	0	64560	
3622	0	64552	
3623	0	64560	
3624	0	64548	
3625	0	64552	
3626	0	64560	
3627	0	64548	
3628	0	64570	
3629	0	64576	
3630	0	64592	
3631	0	64552	
3632	0	64560	
3633	0	64552	
3634	0	64576	
3635	0	64560	
3636	0	64556	
3637	0	64564	
3638	0	64552	
3639	0	64560	
3640	0	64560	
3641	0	64552	
3642	0	64576	
3643	0	64552	
3644	0	64568	
3645	0	64568	
3646	0	64560	
3647	0	64560	
3648	0	64576	
3649	0	64564	
3650	0	64568	
3651	0	64560	
3652	0	64552	
3653	0	64568	
3654	0	64564	
3655	0	64576	
3656	0	64584	
3657	0	64560	
3658	0	64552	
3659	0	64552	
3660	0	64584	
3661	0	64576	
3662	0	64544	
3663	0	64556	
3664	0	64560	
3665	0	64560	
3666	0	64568	
3667	0	64564	
3668	0	64568	
3669	0	64548	
3670	0	64544	
3671	0	64568	
3672	0	64568	
3673	0	64576	
3674	0	64560	
3675	0	64560	
3676	0	64568	
3677	0	64548	
3678	0	64568	
3679	0	64568	
3680	0	64560	
3681	0	64568	
3682	0	64576	
3683	0	64560	
3684	0	64560	
3685	0	64560	
3686	0	64560	
3687	0	64568	
3688	0	64568	
3689	0	64568	
3690	0	64560	
3691	0	64576	
3692	0	64576	
3693	0	64576	
3694	0	64572	
3695	0	64560	
3696	0	64576	
3697	0	64576	
3698	0	64576	
3699	0	64568	
3700	0	64568	
3701	0	64572	
3702	0	64576	
3703	0	64560	
3704	0	64576	
3705	0	64584	
3706	0	64568	
3707	0	64568	
3708	0	64568	
3709	0	64548	
3710	0	64568	
3711	0	64560	
3712	0	64580	
3713	0	64560	
3714	0	64576	
3715	0	64576	
3716	0	64568	
3717	0	64560	
3718	0	64560	
3719	0	64588	
3720	0	64560	
3721	0	64572	
3722	0	64576	
3723	0	64568	
3724	0	64568	
3725	0	64560	
3726	0	64576	
3727	0	64588	
3728	0	64584	
3729	0	64576	
3730	0	64576	
3731	0	64568	
3732	0	64568	
3733	0	64560	
3734	0	64564	
3735	0	64560	
3736	0	64576	
3737	0	64564	
3738	0	64560	
3739	0	64584	
3740	0	64576	
3741	0	64564	
3742	0	64568	
3743	0	64576	
3744	0	64580	
3745	0	64576	
3746	0	64576	
3747	0	64576	
3748	0	64564	
3749	0	64588	
3750	0	64568	
3751	0	64568	
3752	0	64576	
3753	0	64568	
3754	0	64568	
3755	0	64568	
3756	0	64576	
3757	0	64576	
3758	0	64568	
3759	0	64584	
3760	0	64584	
3761	0	64576	
3762	0	64580	
3763	0	64576	
3764	0	64576	
3765	0	64564	
3766	0	64568	
3767	0	64576	
3768	0	64564	
3769	0	64568	
3770	0	64560	
3771	0	64568	
3772	0	64552	
3773	0	64560	
3774	0	64564	
3775	0	64576	
3776	0	64576	
3777	0	64564	
3778	0	64560	
3779	0	64560	
3780	0	64572	
3781	0	64576	
3782	0	64576	
3783	0	64576	
3784	0	64560	
3785	0	64564	
3786	0	64560	
3787	0	64572	
3788	0	64568	
3789	0	64560	
3790	0	64560	
3791	0	64560	
3792	0	64572	
3793	0	64560	
3794	0	64560	
3795	0	64572	
3796	0	64552	
3797	0	64568	
3798	0	64552	
3799	0	64560	
3800	0	64560	
3801	0	64560	
3802	0	64576	
3803	0	64552	
3804	0	64584	
3805	0	64568	
3806	0	64588	
3807	0	64568	
3808	0	64568	
3809	0	64584	
3810	0	64568	
3811	0	64572	
3812	0	64568	
3813	0	64564	
3814	0	64560	
3815	0	64560	
3816	0	64560	
3817	0	64576	
3818	0	64568	
3819	0	64556	
3820	0	64568	
3821	0	64564	
3822	0	64544	
3823	0	64560	
3824	0	64556	
3825	0	64572	
3826	0	64564	
3827	0	64576	
3828	0	64556	
3829	0	64560	
3830	0	64548	
3831	0	64560	
3832	0	64560	
3833	0	64568	
3834	0	64552	
3835	0	64560	
3836	0	64564	
3837	0	64572	
3838	0	64544	
3839	0	64560	
3840	0	64552	
3841	0	64560	
3842	0	64557	
3843	0	64560	
3844	0	64572	
3845	0	64548	
3846	0	64560	
3847	0	64556	
3848	0	64564	
3849	0	64552	
3850	0	64556	
3851	0	64552	
3852	0	64540	
3853	0	64544	
3854	0	64544	
3855	0	64528	
3856	0	64556	
3857	0	64552	
3858	0	64544	
3859	0	64556	
3860	0	64548	
3861	0	64552	
3862	0	64560	
3863	0	64556	
3864	0	64560	
3865	0	64552	
3866	0	64544	
3867	0	64552	
3868	0	64540	
3869	0	64544	
3870	0	64560	
3871	0	64544	
3872	0	64548	
3873	0	64548	
3874	0	64560	
3875	0	64552	
3876	0	64552	
3877	0	64532	
3878	0	64536	
3879	0	64552	
3880	0	64544	
3881	0	64548	
3882	0	64544	
3883	0	64540	
3884	0	64540	
3885	0	64544	
3886	0	64548	
3887	0	64536	
3888	0	64548	
3889	0	64544	
3890	0	64536	
3891	0	64544	
3892	0	64544	
3893	0	64520	
3894	0	64536	
3895	0	64544	
3896	0	64544	
3897	0	64552	
3898	0	64528	
3899	0	64548	
3900	0	64552	
3901	0	64544	
3902	0	64544	
3903	0	64528	
3904	0	64544	
3905	0	64540	
3906	0	64544	
3907	0	64544	
3908	0	64536	
3909	0	64536	
3910	0	64536	
3911	0	64544	
3912	0	64528	
3913	0	64568	
3914	0	64544	
3915	0	64536	
3916	0	64544	
3917	0	64552	
3918	0	64536	
3919	0	64536	
3920	0	64552	
3921	0	64536	
3922	0	64564	
3923	0	64528	
3924	0	64536	
3925	0	64544	
3926	0	64528	
3927	0	64532	
3928	0	64528	
3929	0	64540	
3930	0	64540	
3931	0	64528	
3932	0	64536	
3933	0	64536	
3934	0	64548	
3935	0	64560	
3936	0	64552	
3937	0	64540	
3938	0	64536	
3939	0	64512	
3940	0	64544	
3941	0	64528	
3942	0	64536	
3943	0	64528	
3944	0	64536	
3945	0	64548	
3946	0	64528	
3947	0	64544	
3948	0	64532	
3949	0	64532	
3950	0	64520	
3951	0	64544	
3952	0	64528	
3953	0	64548	
3954	0	64544	
3955	0	64520	
3956	0	64544	
3957	0	64532	
3958	0	64532	
3959	0	64528	
3960	0	64544	
3961	0	64544	
3962	0	64528	
3963	0	64536	
3964	0	64544	
3965	0	64554	
3966	0	64536	
3967	0	64528	
3968	0	64528	
3969	0	64544	
3970	0	64540	
3971	0	64544	
3972	0	64536	
3973	0	64540	
3974	0	64536	
3975	0	64536	
3976	0	64528	
3977	0	64540	
3978	0	64528	
3979	0	64540	
3980	0	64536	
3981	0	64528	
3982	0	64528	
3983	0	64528	
3984	0	64552	
3985	0	64532	
3986	0	64540	
3987	0	64544	
3988	0	64528	
3989	0	64528	
3990	0	64544	
3991	0	64544	
3992	0	64544	
3993	0	64528	
3994	0	64532	
3995	0	64528	
3996	0	64544	
3997	0	64528	
3998	0	64536	
3999	0	64544	
4000	0	64532	
4001	0	64536	
4002	0	64528	
4003	0	64544	
4004	0	64552	
4005	0	64532	
4006	0	64528	
4007	0	64536	
4008	0	64532	
4009	0	64536	
4010	0	64528	
4011	0	64540	
4012	0	64532	
4013	0	64552	
4014	0	64528	
4015	0	64528	
4016	0	64520	
4017	0	64544	
4018	0	64536	
4019	0	64528	
4020	0	64528	
4021	0	64544	
4022	0	64532	
4023	0	64544	
4024	0	64536	
4025	0	64536	
4026	0	64544	
4027	0	64536	
4028	0	64536	
4029	0	64536	
4030	0	64528	
4031	0	64516	
4032	0	64544	
4033	0	64536	
4034	0	64528	
4035	0	64528	
4036	0	64528	
4037	0	64528	
4038	0	64520	
4039	0	64520	
4040	0	64528	
4041	0	64532	
4042	0	64520	
4043	0	64520	
4044	0	64524	
4045	0	64532	
4046	0	64544	
4047	0	64516	
4048	0	64520	
4049	0	64528	
4050	0	64520	
4051	0	64528	
4052	0	64528	
4053	0	64528	
4054	0	64520	
4055	0	64516	
4056	0	64528	
4057	0	64520	
4058	0	64528	
4059	0	64504	
4060	0	64516	
4061	0	64504	
4062	0	64512	
4063	0	64512	
4064	0	64528	
4065	0	64524	
4066	0	64518	
4067	0	64520	
4068	0	64508	
4069	0	64504	
4070	0	64504	
4071	0	64512	
4072	0	64496	
4073	0	64516	
4074	0	64516	
4075	0	64500	
4076	0	64504	
4077	0	64508	
4078	0	64504	
4079	0	64496	
4080	0	64508	
4081	0	64500	
4082	0	64512	
4083	0	64512	
4084	0	64496	
4085	0	64504	
4086	0	64496	
4087	0	64512	
4088	0	64488	
4089	0	64488	
4090	0	64496	
4091	0	64496	
4092	0	64496	
4093	0	64480	
4094	0	64496	
4095	0	64508	
4096	0	64480	
4097	0	64496	
4098	0	64496	
4099	0	64496	
4100	0	64504	
4101	0	64472	
4102	0	64496	
4103	0	64480	
4104	0	64464	
4105	0	64488	
4106	0	64488	
4107	0	64496	
4108	0	64480	
4109	0	64488	
4110	0	64488	
4111	0	64456	
4112	0	64456	
4113	0	64480	
4114	0	64468	
4115	0	64472	
4116	0	64452	
4117	0	64480	
4118	0	64468	
4119	0	64456	
4120	0	64472	
4121	0	64472	
4122	0	64448	
4123	0	64448	
4124	0	64464	
4125	0	64448	
4126	0	64448	
4127	0	64464	
4128	0	64432	
4129	0	64464	
4130	0	64456	
4131	0	64448	
4132	0	64448	
4133	0	64424	
4134	0	64448	
4135	0	64424	
4136	0	64432	
4137	0	64424	
4138	0	64436	
4139	0	64432	
4140	0	64424	
4141	0	64432	
4142	0	64432	
4143	0	64416	
4144	0	64432	
4145	0	64424	
4146	0	64416	
4147	0	64404	
4148	0	64412	
4149	0	64400	
4150	0	64404	
4151	0	64424	
4152	0	64404	
4153	0	64392	
4154	0	64392	
4155	0	64400	
4156	0	64392	
4157	0	64376	
4158	0	64384	
4159	0	64380	
4160	0	64380	
4161	0	64380	
4162	0	64384	
4163	0	64352	
4164	0	64360	
4165	0	64354	
4166	0	64352	
4167	0	64352	
4168	0	64320	
4169	0	64352	
4170	0	64368	
4171	0	64344	
4172	0	64328	
4173	0	64328	
4174	0	64328	
4175	0	64320	
4176	0	64320	
4177	0	64308	
4178	0	64304	
4179	0	64304	
4180	0	64296	
4181	0	64312	
4182	0	64276	
4183	0	64300	
4184	0	64296	
4185	0	64276	
4186	0	64276	
4187	0	64264	
4188	0	64264	
4189	0	64256	
4190	0	64256	
4191	0	64252	
4192	0	64216	
4193	0	64240	
4194	0	64232	
4195	0	64240	
4196	0	64232	
4197	0	64228	
4198	0	64212	
4199	0	64216	
4200	0	64212	
4201	0	64212	
4202	0	64204	
4203	0	64192	
4204	0	64200	
4205	0	64192	
4206	0	64200	
4207	0	64192	
4208	0	64176	
4209	0	64196	
4210	0	64152	
4211	0	64164	
4212	0	64176	
4213	0	64148	
4214	0	64132	
4215	0	64136	
4216	0	64124	
4217	0	64112	
4218	0	64128	
4219	0	64104	
4220	0	64104	
4221	0	64072	
4222	0	64084	
4223	0	64056	
4224	0	64084	
4225	0	64052	
4226	0	64056	
4227	0	64036	
4228	0	64044	
4229	0	64032	
4230	0	64016	
4231	0	64008	
4232	0	63992	
4233	0	63984	
4234	0	63992	
4235	0	63976	
4236	0	63976	
4237	0	63948	
4238	0	63944	
4239	0	63936	
4240	0	63920	
4241	0	63912	
4242	0	63888	
4243	0	63880	
4244	0	63880	
4245	0	63864	
4246	0	63856	
4247	0	63852	
4248	0	63824	
4249	0	63820	
4250	0	63800	
4251	0	63796	
4252	0	63768	
4253	0	63776	
4254	0	63756	
4255	0	63744	
4256	0	63728	
4257	0	63712	
4258	0	63708	
4259	0	63680	
4260	0	63672	
4261	0	63656	
4262	0	63652	
4263	0	63620	
4264	0	63620	
4265	0	63588	
4266	0	63584	
4267	0	63552	
4268	0	63548	
4269	0	63532	
4270	0	63480	
4271	0	63476	
4272	0	63468	
4273	0	63440	
4274	0	63408	
4275	0	63408	
4276	0	63368	
4277	0	63364	
4278	0	63312	
4279	0	63300	
4280	0	63264	
4281	0	63248	
4282	0	63216	
4283	0	63204	
4284	0	63176	
4285	0	63160	
4286	0	63128	
4287	0	63096	
4288	0	63064	
4289	0	63024	
4290	0	62976	
4291	0	62976	
4292	0	62936	
4293	0	62912	
4294	0	62860	
4295	0	62832	
4296	0	62784	
4297	0	62752	
4298	0	62712	
4299	0	62676	
4300	0	62640	
4301	0	62592	
4302	0	62560	
4303	0	62500	
4304	0	62456	
4305	0	62436	
4306	0	62388	
4307	0	62312	
4308	0	62280	
4309	0	62232	
4310	0	62160	
4311	0	62124	
4312	0	62088	
4313	0	62016	
4314	0	61952	
4315	0	61892	
4316	0	61840	
4317	0	61784	
4318	0	61728	
4319	0	61652	
4320	0	61596	
4321	0	61530	
4322	0	61456	
4323	0	61396	
4324	0	61320	
4325	0	61240	
4326	0	61160	
4327	0	61072	
4328	0	60972	
4329	0	60935	
4330	0	60848	
4331	0	60760	
4332	0	60648	
4333	0	60568	
4334	0	60488	
4335	0	60392	
4336	0	60320	
4337	0	60224	
4338	0	60080	
4339	0	59968	
4340	0	59840	
4341	0	59692	
4342	0	59584	
4343	0	59444	
4344	0	59320	
4345	0	59200	
4346	0	59096	
4347	0	58992	
4348	0	58872	
4349	0	58772	
4350	0	58656	
4351	0	58572	
4352	0	58440	
4353	0	58352	
4354	0	58240	
4355	0	58120	
4356	0	58020	
4357	0	57928	
4358	0	57816	
4359	0	57728	
4360	0	57584	
4361	0	57472	
4362	0	57340	
4363	0	57272	
4364	0	57204	
4365	0	57120	
4366	0	57080	
4367	0	57024	
4368	0	56944	
4369	0	56888	
4370	0	56844	
4371	0	56744	
4372	0	56704	
4373	0	56696	
4374	0	56608	
4375	0	56524	
4376	0	56472	
4377	0	56408	
4378	0	56372	
4379	0	56300	
4380	0	56224	
4381	0	56192	
4382	0	56140	
4383	0	56056	
4384	0	56020	
4385	0	55956	
4386	0	55884	
4387	0	55824	
4388	0	55776	
4389	0	55736	
4390	0	55688	
4391	0	55632	
4392	0	55584	
4393	0	55488	
4394	0	55472	
4395	0	55392	
4396	0	55328	
4397	0	55316	
4398	0	55236	
4399	0	55156	
4400	0	55104	
4401	0	55020	
4402	0	55012	
4403	0	54896	
4404	0	54836	
4405	0	54816	
4406	0	54732	
4407	0	54696	
4408	0	54608	
4409	0	54520	
4410	0	54440	
4411	0	54408	
4412	0	54328	
4413	0	54234	
4414	0	54192	
4415	0	54132	
4416	0	54088	
4417	0	53964	
4418	0	53884	
4419	0	53856	
4420	0	53792	
4421	0	53724	
4422	0	53640	
4423	0	53508	
4424	0	53456	
4425	0	53368	
4426	0	53304	
4427	0	53220	
4428	0	53184	
4429	0	53104	
4430	0	53024	
4431	0	52960	
4432	0	52880	
4433	0	52792	
4434	0	52696	
4435	0	52588	
4436	0	52480	
4437	0	52416	
4438	0	52304	
4439	0	52196	
4440	0	52008	
4441	0	51904	
4442	0	51824	
4443	0	51672	
4444	0	51552	
4445	0	51456	
4446	0	51352	
4447	0	51300	
4448	0	51196	
4449	0	51112	
4450	0	51020	
4451	0	50800	
4452	0	50736	
4453	0	50568	
4454	0	50496	
4455	0	50296	
4456	0	50172	
4457	0	50036	
4458	0	49828	
4459	0	49708	
4460	0	49576	
4461	0	49428	
4462	0	49276	
4463	0	49136	
4464	0	48916	
4465	0	48772	
4466	0	48636	
4467	0	48456	
4468	0	48288	
4469	0	48112	
4470	0	47996	
4471	0	47696	
4472	0	47544	
4473	0	47426	
4474	0	47144	
4475	0	46932	
4476	0	46792	
4477	0	46608	
4478	0	46428	
4479	0	46304	
4480	0	46072	
4481	0	45904	
4482	0	45644	
4483	0	45392	
4484	0	45172	
4485	0	44952	
4486	0	44656	
4487	0	44456	
4488	0	44196	
4489	0	43960	
4490	0	43752	
4491	0	43424	
4492	0	43176	
4493	0	42832	
4494	0	42640	
4495	0	42240	
4496	0	41864	
4497	0	41512	
4498	0	41160	
4499	0	40624	
4500	0	40360	
4501	0	40116	
4502	0	39808	
4503	0	39648	
4504	0	39316	
4505	0	38988	
4506	0	38540	
4507	0	38362	
4508	0	38064	
4509	0	37776	
4510	0	37328	
4511	0	36992	
4512	0	36468	
4513	0	36204	
4514	0	35572	
4515	0	35012	
4516	0	34824	
4517	0	34344	
4518	0	34036	
4519	0	33520	
4520	0	33112	
4521	0	32544	
4522	0	32076	
4523	0	31674	
4524	0	31388	
4525	0	30848	
4526	0	29940	
4527	0	29404	
4528	0	28684	
4529	0	28484	
4530	0	27680	
4531	0	27136	
4532	0	26504	
4533	0	26000	
4534	0	26258	
4535	0	26100	
4536	0	26330	
4537	0	26340	
4538	0	26612	
4539	0	26316	
4540	0	25776	
4541	0	25600	
4542	0	25236	
4543	0	24440	
4544	0	24336	
4545	0	24129	
4546	0	24012	
4547	0	23954	
4548	0	23672	
4549	0	23068	
4550	0	22720	
4551	0	22550	
4552	0	22392	
4553	0	22484	
4554	0	22414	
4555	0	21784	
4556	0	21464	
4557	0	21324	
4558	0	21202	
4559	0	20922	
4560	0	20658	
4561	0	20548	
4562	0	20192	
4563	0	19828	
4564	0	19488	
4565	0	19410	
4566	0	19176	
4567	0	18752	
4568	0	18360	
4569	0	17512	
4570	0	17184	
4571	0	17008	
4572	0	16621	
4573	0	16316	
4574	0	16080	
4575	0	15748	
4576	0	15532	
4577	0	15192	
4578	0	14920	
4579	0	14697	
4580	0	14146	
4581	0	13817	
4582	0	13577	
4583	0	13240	
4584	0	12392	
4585	0	12110	
4586	0	11972	
4587	0	11560	
4588	0	11120	
4589	0	10736	
4590	0	10418	
4591	0	10089	
4592	0	9826	
4593	0	9824	
4594	0	9518	
4595	0	9168	
4596	0	9027	
4597	0	8743	
4598	0	8294	
4599	0	8036	
4600	0	8016	
4601	0	8308	
4602	0	8004	
4603	0	8060	
4604	0	8048	
4605	0	8040	
4606	0	8166	
4607	0	7888	
4608	0	7694	
4609	0	7212	
4610	0	6641	
4611	0	6129	
4612	0	5789	
4613	0	5988	
4614	0	5621	
4615	0	5788	
4616	0	5357	
4617	0	5113	
4618	0	5072	
4619	0	5045	
4620	0	5024	
4621	0	5076	
4622	0	5114	
4623	0	5118	
4624	0	4914	
4625	0	4824	
4626	0	4893	
4627	0	4868	
4628	0	4790	
4629	0	4971	
4630	0	4884	
4631	0	4820	
4632	0	4564	
4633	0	4410	
4634	0	4625	
4635	0	4592	
4636	0	4556	
4637	0	4537	
4638	0	4554	
4639	0	4550	
4640	0	4559	
4641	0	4430	
4642	0	4476	
4643	0	4487	
4644	0	4607	
4645	0	4643	
4646	0	4484	
4647	0	4490	
4648	0	4472	
4649	0	4477	
4650	0	4477	
4651	0	4505	
4652	0	4318	
4653	0	4351	
4654	0	4259	
4655	0	4249	
4656	0	4406	
4657	0	4541	
4658	0	4414	
4659	0	4384	
4660	0	4384	
4661	0	4365	
4662	0	4361	
4663	0	4106	
4664	0	4183	
4665	0	4041	
4666	0	3976	
4667	0	3724	
4668	0	3636	
4669	0	3666	
4670	0	3654	
4671	0	3621	
4672	0	3673	
4673	0	3560	
4674	0	3624	
4675	0	3509	
4676	0	3491	
4677	0	3448	
4678	0	3493	
4679	0	3396	
4680	0	3461	
4681	0	3376	
4682	0	3276	
4683	0	3307	
4684	0	3295	
4685	0	3354	
4686	0	3388	
4687	0	3106	
4688	0	3130	
4689	0	3144	
4690	0	3115	
4691	0	3150	
4692	0	3044	
4693	0	3092	
4694	0	3031	
4695	0	3054	
4696	0	3085	
4697	0	3036	
4698	0	3024	
4699	0	2917	
4700	0	3028	
4701	0	2981	
4702	0	2868	
4703	0	2878	
4704	0	3061	
4705	0	3029	
4706	0	2801	
4707	0	2850	
4708	0	2937	
4709	0	2772	
4710	0	2682	
4711	0	2756	
4712	0	2592	
4713	0	2504	
4714	0	2463	
4715	0	2438	
4716	0	2248	
4717	0	2042	
4718	0	1942	
4719	0	1881	
4720	0	1585	
4721	0	1438	
4722	0	1352	
4723	0	1218	
4724	0	466	
4725	0	62	
4726	0	11	
4727	0	12	
4728	0	13	
4729	0	11	
4730	0	11	
4731	0	12	
4732	0	12	
4733	0	12	
4734	0	11	
4735	0	12	
4736	0	12	
4737	0	12	
4738	0	11	
4739	0	12	
4740	0	11	
4741	0	10	
4742	0	11	
4743	0	11	
4744	0	12	
4745	0	13	
4746	0	12	
4747	0	12	
4748	0	12	
4749	0	12	
4750	0	12	
4751	0	12	
4752	0	11	
4753	0	12	
4754	0	11	
4755	0	13	
4756	0	13	
4757	0	12	
4758	0	10	
4759	0	13	
4760	0	12	
4761	0	12	
4762	0	11	
4763	0	11	
4764	0	12	
4765	0	11	
4766	0	12	
4767	0	12	
4768	0	11	
4769	0	11	
4770	0	12	
4771	0	12	
4772	0	12	
4773	0	12	
4774	0	13	
4775	0	11	
4776	0	11	
4777	0	13	
4778	0	12	
4779	0	11	
4780	0	13	
4781	0	11	
4782	0	12	
4783	0	11	
4784	0	11	
4785	0	13	
4786	0	11	
4787	0	12	
4788	0	11	
4789	0	12	
4790	0	11	
4791	0	12	
4792	0	12	
4793	0	12	
4794	0	12	
4795	0	12	
4796	0	12	
4797	0	13	
4798	0	12	
4799	0	11	
4800	0	12	
4801	0	12	
4802	0	13	
4803	0	11	
4804	0	13	
4805	0	13	
4806	0	12	
4807	0	11	
4808	0	12	
4809	0	11	
4810	0	12	
4811	0	12	
4812	0	13	
4813	0	12	
4814	0	12	
4815	0	11	
4816	0	12	
4817	0	11	
4818	0	13	
4819	0	13	
4820	0	11	
4821	0	12	
4822	0	11	
4823	0	11	
4824	0	12	
4825	0	12	
4826	0	10	
4827	0	12	
4828	0	11	
4829	0	11	
4830	0	11	
4831	0	11	
4832	0	12	
4833	0	11	
4834	0	12	
4835	0	12	
4836	0	13	
4837	0	13	
4838	0	11	
4839	0	12	
4840	0	12	
4841	0	12	
4842	0	11	
4843	0	11	
4844	0	11	
4845	0	11	
4846	0	12	
4847	0	11	
4848	0	13	
4849	0	11	
4850	0	12	
4851	0	13	
4852	0	12	
4853	0	13	
4854	0	13	
4855	0	11	
4856	0	12	
4857	0	13	
4858	0	12	
4859	0	12	
4860	0	11	
4861	0	12	
4862	0	13	
4863	0	12	
4864	0	11	
4865	0	12	
4866	0	11	
4867	0	12	
4868	0	12	
4869	0	12	
4870	0	12	
4871	0	13	
4872	0	12	
4873	0	12	
4874	0	12	
4875	0	11	
4876	0	12	
4877	0	12	
4878	0	12	
4879	0	11	
4880	0	12	
4881	0	11	
4882	0	12	
4883	0	12	
4884	0	12	
4885	0	11	
4886	0	12	
4887	0	11	
4888	0	12	
4889	0	11	
4890	0	11	
4891	0	11	
4892	0	12	
4893	0	11	
4894	0	12	
4895	0	13	
4896	0	13	
4897	0	11	
4898	0	12	
4899	0	10	
4900	0	12	
4901	0	11	
4902	0	11	
4903	0	12	
4904	0	12	
4905	0	12	
4906	0	11	
4907	0	11	
4908	0	12	
4909	0	12	
4910	0	12	
4911	0	12	
4912	0	12	
4913	0	11	
4914	0	12	
4915	0	11	
4916	0	11	
4917	0	13	
4918	0	11	
4919	0	12	
4920	0	12	
4921	0	11	
4922	0	12	
4923	0	11	
4924	0	11	
4925	0	11	
4926	0	12	
4927	0	11	
4928	0	11	
4929	0	12	
4930	0	12	
4931	0	12	
4932	0	11	
4933	0	11	
4934	0	14	
4935	0	11	
4936	0	11	
4937	0	12	
4938	0	12	
4939	0	14	
4940	0	14	
4941	0	12	
4942	0	11	
4943	0	12	
4944	0	11	
4945	0	11	
4946	0	13	
4947	0	13	
4948	0	12	
4949	0	11	
4950	0	12	
4951	0	11	
4952	0	11	
4953	0	12	
4954	0	12	
4955	0	11	
4956	0	12	
4957	0	12	
4958	0	12	
4959	0	12	
4960	0	11	
4961	0	12	
4962	0	12	
4963	0	12	
4964	0	12	
4965	0	12	
4966	0	13	
4967	0	12	
4968	0	11	
4969	0	12	
4970	0	12	
4971	0	12	
4972	0	12	
4973	0	11	
4974	0	50	
4975	0	63	
4976	0	62	
4977	0	65	
4978	0	54	
4979	0	52	
4980	0	52	
4981	0	46	
4982	0	22	
4983	0	10	
4984	0	11	
4985	0	10	
4986	0	11	
4987	0	13	
4988	0	12	
4989	0	11	
4990	0	14	
4991	0	12	
4992	0	12	
4993	0	9	
4994	0	11	
4995	0	10	
4996	0	11	
4997	0	10	
4998	0	12	
4999	0	14	
5000	0	12	
5001	0	13	
5002	0	11	
5003	0	13	
5004	0	47	
5005	0	68	
5006	0	59	
5007	0	66	
5008	0	75	
5009	0	62	
5010	0	70	
5011	0	69	
5012	0	78	
5013	0	82	
5014	0	84	
5015	0	90	
5016	0	82	
5017	0	88	
5018	0	64	
5019	0	67	
5020	0	64	
5021	0	62	
5022	0	74	
5023	0	67	
5024	0	67	
5025	0	72	
5026	0	172	
5027	0	353	
5028	0	368	
5029	0	404	
5030	0	393	
5031	0	444	
5032	0	442	
5033	0	531	
5034	0	535	
5035	0	525	
5036	0	547	
5037	0	587	
5038	0	621	
5039	0	626	
5040	0	704	
5041	0	872	
5042	0	900	
5043	0	997	
5044	0	1082	
5045	0	1060	
5046	0	1084	
5047	0	1063	
5048	0	1106	
5049	0	1044	
5050	0	1102	
5051	0	1099	
5052	0	1132	
5053	0	1112	
5054	0	1106	
5055	0	1120	
5056	0	1129	
5057	0	1204	
5058	0	1211	
5059	0	1225	
5060	0	1501	
5061	0	1470	
5062	0	1509	
5063	0	1579	
5064	0	1574	
5065	0	1495	
5066	0	1531	
5067	0	1557	
5068	0	1462	
5069	0	1418	
5070	0	1604	
5071	0	1598	
5072	0	1623	
5073	0	1585	
5074	0	1622	
5075	0	1571	
5076	0	1581	
5077	0	1632	
5078	0	1565	
5079	0	1533	
5080	0	1585	
5081	0	1578	
5082	0	1553	
5083	0	1593	
5084	0	1636	
5085	0	1640	
5086	0	1599	
5087	0	1595	
5088	0	1678	
5089	0	1584	
5090	0	1640	
5091	0	1684	
5092	0	1675	
5093	0	1538	
5094	0	1689	
5095	0	1588	
5096	0	1643	
5097	0	1572	
5098	0	1612	
5099	0	1524	
5100	0	1669	
5101	0	1591	
5102	0	1691	
5103	0	1722	
5104	0	1740	
5105	0	1654	
5106	0	1700	
5107	0	1761	
5108	0	1680	
5109	0	1852	
5110	0	1758	
5111	0	1854	
5112	0	1862	
5113	0	1925	
5114	0	2029	
5115	0	1960	
5116	0	1968	
5117	0	2049	
5118	0	2011	
5119	0	2157	
5120	0	2060	
5121	0	2077	
5122	0	2110	
5123	0	2063	
5124	0	2045	
5125	0	2119	
5126	0	2183	
5127	0	2233	
5128	0	2224	
5129	0	2279	
5130	0	2243	
5131	0	2317	
5132	0	2391	
5133	0	2258	
5134	0	2409	
5135	0	2380	
5136	0	2422	
5137	0	2514	
5138	0	2570	
5139	0	2511	
5140	0	2500	
5141	0	2536	
5142	0	2740	
5143	0	2792	
5144	0	2700	
5145	0	2700	
5146	0	2701	
5147	0	2721	
5148	0	2744	
5149	0	2772	
5150	0	2644	
5151	0	2760	
5152	0	2833	
5153	0	2798	
5154	0	2850	
5155	0	2894	
5156	0	2860	
5157	0	2833	
5158	0	2960	
5159	0	2906	
5160	0	2798	
5161	0	2948	
5162	0	3005	
5163	0	3004	
5164	0	2972	
5165	0	2958	
5166	0	2994	
5167	0	3059	
5168	0	3067	
5169	0	3063	
5170	0	3070	
5171	0	3094	
5172	0	3154	
5173	0	3204	
5174	0	3037	
5175	0	3186	
5176	0	3201	
5177	0	3167	
5178	0	3234	
5179	0	3190	
5180	0	3147	
5181	0	3217	
5182	0	3215	
5183	0	3191	
5184	0	3326	
5185	0	3239	
5186	0	3344	
5187	0	3360	
5188	0	3311	
5189	0	3296	
5190	0	3312	
5191	0	3306	
5192	0	3352	
5193	0	3340	
5194	0	3284	
5195	0	3322	
5196	0	3301	
5197	0	3310	
5198	0	3372	
5199	0	3182	
5200	0	3362	
5201	0	3226	
5202	0	3185	
5203	0	3110	
5204	0	3302	
5205	0	3264	
5206	0	3262	
5207	0	3245	
5208	0	3236	
5209	0	3282	
5210	0	3183	
5211	0	3229	
5212	0	3266	
5213	0	3232	
5214	0	3174	
5215	0	3206	
5216	0	3266	
5217	0	3319	
5218	0	3289	
5219	0	3288	
5220	0	3348	
5221	0	3246	
5222	0	3365	
5223	0	3375	
5224	0	3295	
5225	0	3406	
5226	0	3358	
5227	0	3363	
5228	0	3429	
5229	0	3388	
5230	0	3360	
5231	0	3283	
5232	0	3354	
5233	0	3183	
5234	0	3264	
5235	0	3300	
5236	0	3265	
5237	0	3309	
5238	0	3357	
5239	0	3408	
5240	0	3512	
5241	0	3493	
5242	0	3525	
5243	0	3514	
5244	0	3409	
5245	0	3555	
5246	0	3566	
5247	0	3530	
5248	0	3588	
5249	0	3564	
5250	0	3558	
5251	0	3620	
5252	0	3507	
5253	0	3569	
5254	0	3538	
5255	0	3696	
5256	0	3621	
5257	0	3583	
5258	0	3674	
5259	0	3625	
5260	0	3655	
5261	0	3661	
5262	0	3737	
5263	0	3663	
5264	0	3692	
5265	0	3618	
5266	0	3666	
5267	0	3694	
5268	0	3644	
5269	0	3702	
5270	0	3674	
5271	0	3737	
5272	0	3661	
5273	0	3657	
5274	0	3750	
5275	0	3760	
5276	0	3761	
5277	0	3776	
5278	0	3756	
5279	0	3743	
5280	0	3781	
5281	0	3821	
5282	0	3721	
5283	0	3738	
5284	0	3754	
5285	0	3773	
5286	0	3720	
5287	0	3792	
5288	0	3772	
5289	0	3730	
5290	0	3764	
5291	0	3821	
5292	0	3722	
5293	0	3677	
5294	0	3856	
5295	0	3821	
5296	0	3780	
5297	0	3806	
5298	0	3746	
5299	0	3711	
5300	0	3921	
5301	0	3800	
5302	0	3762	
5303	0	3815	
5304	0	3740	
5305	0	3792	
5306	0	3828	
5307	0	3777	
5308	0	3754	
5309	0	3800	
5310	0	3841	
5311	0	3814	
5312	0	3748	
5313	0	3759	
5314	0	3856	
5315	0	3838	
5316	0	3845	
5317	0	3726	
5318	0	3836	
5319	0	3851	
5320	0	3832	
5321	0	3868	
5322	0	3758	
5323	0	3808	
5324	0	3914	
5325	0	3786	
5326	0	3816	
5327	0	3838	
5328	0	3886	
5329	0	3805	
5330	0	3814	
5331	0	3901	
5332	0	3904	
5333	0	3826	
5334	0	3961	
5335	0	3879	
5336	0	3915	
5337	0	3881	
5338	0	3816	
5339	0	3882	
5340	0	3826	
5341	0	3789	
5342	0	3836	
5343	0	3782	
5344	0	3819	
5345	0	3836	
5346	0	3850	
5347	0	3900	
5348	0	3825	
5349	0	3918	
5350	0	3824	
5351	0	3884	
5352	0	3861	
5353	0	3922	
5354	0	3939	
5355	0	3930	
5356	0	3880	
5357	0	3946	
5358	0	3940	
5359	0	3766	
5360	0	3874	
5361	0	3860	
5362	0	3902	
5363	0	3874	
5364	0	3946	
5365	0	3882	
5366	0	3810	
5367	0	3882	
5368	0	3848	
5369	0	3897	
5370	0	3900	
5371	0	3917	
5372	0	3841	
5373	0	3868	
5374	0	3973	
5375	0	3894	
5376	0	3926	
5377	0	3955	
5378	0	3944	
5379	0	3888	
5380	0	3916	
5381	0	3912	
5382	0	3886	
5383	0	3901	
5384	0	3857	
5385	0	3884	
5386	0	3915	
5387	0	3962	
5388	0	3957	
5389	0	3910	
5390	0	3934	
5391	0	3905	
5392	0	4056	
5393	0	3944	
5394	0	3999	
5395	0	3902	
5396	0	3906	
5397	0	3964	
5398	0	3950	
5399	0	3952	
5400	0	3983	
5401	0	4025	
5402	0	3992	
5403	0	3954	
5404	0	3911	
5405	0	3996	
5406	0	3991	
5407	0	4015	
5408	0	4030	
5409	0	4052	
5410	0	3976	
5411	0	4012	
5412	0	4061	
5413	0	3890	
5414	0	4000	
5415	0	4052	
5416	0	4045	
5417	0	4019	
5418	0	4050	
5419	0	3988	
5420	0	4061	
5421	0	3932	
5422	0	3936	
5423	0	3981	
5424	0	4064	
5425	0	4042	
5426	0	4011	
5427	0	3986	
5428	0	4076	
5429	0	4037	
5430	0	3939	
5431	0	4003	
5432	0	4001	
5433	0	3900	
5434	0	3894	
5435	0	3937	
5436	0	3915	
5437	0	3900	
5438	0	3979	
5439	0	3908	
5440	0	3997	
5441	0	3942	
5442	0	3884	
5443	0	3897	
5444	0	3982	
5445	0	3932	
5446	0	3968	
5447	0	3990	
5448	0	3958	
5449	0	3923	
5450	0	4024	
5451	0	3890	
5452	0	3988	
5453	0	3954	
5454	0	3969	
5455	0	3885	
5456	0	3948	
5457	0	3930	
5458	0	3965	
5459	0	3976	
5460	0	3994	
5461	0	4027	
5462	0	3877	
5463	0	3950	
5464	0	3968	
5465	0	3974	
5466	0	3940	
5467	0	3994	
5468	0	3981	
5469	0	3964	
5470	0	3950	
5471	0	3933	
5472	0	3913	
5473	0	3999	
5474	0	3953	
5475	0	4018	
5476	0	3962	
5477	0	4037	
5478	0	3963	
5479	0	3913	
5480	0	3901	
5481	0	3986	
5482	0	3937	
5483	0	4000	
5484	0	3908	
5485	0	3868	
5486	0	3975	
5487	0	3937	
5488	0	3964	
5489	0	3962	
5490	0	3906	
5491	0	3966	
5492	0	4000	
5493	0	3971	
5494	0	4009	
5495	0	3954	
5496	0	3969	
5497	0	3980	
5498	0	3912	
5499	0	3980	
5500	0	3924	
5501	0	3965	
5502	0	3961	
5503	0	4023	
5504	0	3916	
5505	0	3937	
5506	0	3980	
5507	0	3911	
5508	0	3940	
5509	0	3942	
5510	0	3985	
5511	0	3968	
5512	0	3938	
5513	0	3988	
5514	0	4004	
5515	0	4020	
5516	0	3980	
5517	0	4012	
5518	0	4026	
5519	0	3983	
5520	0	3906	
5521	0	3936	
5522	0	4039	
5523	0	4039	
5524	0	3978	
5525	0	4056	
5526	0	4004	
5527	0	4008	
5528	0	3956	
5529	0	4044	
5530	0	4045	
5531	0	3908	
5532	0	3998	
5533	0	3994	
5534	0	3936	
5535	0	4005	
5536	0	3956	
5537	0	4001	
5538	0	3910	
5539	0	3979	
5540	0	3940	
5541	0	4056	
5542	0	4034	
5543	0	3952	
5544	0	4076	
5545	0	3977	
5546	0	4019	
5547	0	4032	
5548	0	4079	
5549	0	4070	
5550	0	3979	
5551	0	3981	
5552	0	4038	
5553	0	3902	
5554	0	4080	
5555	0	4047	
5556	0	3992	
5557	0	3983	
5558	0	4026	
5559	0	4044	
5560	0	3986	
5561	0	4053	
5562	0	3989	
5563	0	3916	
5564	0	3988	
5565	0	3973	
5566	0	3910	
5567	0	4006	
5568	0	4050	
5569	0	3938	
5570	0	4024	
5571	0	3966	
5572	0	4091	
5573	0	3968	
5574	0	3905	
5575	0	4016	
5576	0	4012	
5577	0	4020	
5578	0	3976	
5579	0	4056	
5580	0	3962	
5581	0	4040	
5582	0	4052	
5583	0	4132	
5584	0	4053	
5585	0	4096	
5586	0	4072	
5587	0	4012	
5588	0	4031	
5589	0	4002	
5590	0	4036	
5591	0	4003	
5592	0	3998	
5593	0	3993	
5594	0	4110	
5595	0	3972	
5596	0	4042	
5597	0	3996	
5598	0	3908	
5599	0	4055	
5600	0	3980	
5601	0	4084	
5602	0	4046	
5603	0	4052	
5604	0	4008	
5605	0	4005	
5606	0	4029	
5607	0	4068	
5608	0	4170	
5609	0	4045	
5610	0	4023	
5611	0	4057	
5612	0	4002	
5613	0	4044	
5614	0	4136	
5615	0	4068	
5616	0	4088	
5617	0	4169	
5618	0	4152	
5619	0	4176	
5620	0	4105	
5621	0	4086	
5622	0	4204	
5623	0	4076	
5624	0	4240	
5625	0	4150	
5626	0	4177	
5627	0	4106	
5628	0	4089	
5629	0	4138	
5630	0	4174	
5631	0	4138	
5632	0	4238	
5633	0	4188	
5634	0	4168	
5635	0	4096	
5636	0	4200	
5637	0	4170	
5638	0	4149	
5639	0	4196	
5640	0	4184	
5641	0	4193	
5642	0	4113	
5643	0	4124	
5644	0	4256	
5645	0	4188	
5646	0	4148	
5647	0	4201	
5648	0	4201	
5649	0	4220	
5650	0	4097	
5651	0	4181	
5652	0	4144	
5653	0	4253	
5654	0	4083	
5655	0	4064	
5656	0	4095	
5657	0	4149	
5658	0	4120	
5659	0	4198	
5660	0	4084	
5661	0	4151	
5662	0	4034	
5663	0	4123	
5664	0	4102	
5665	0	4091	
5666	0	4093	
5667	0	4022	
5668	0	4107	
5669	0	4041	
5670	0	4121	
5671	0	4106	
5672	0	4131	
5673	0	4290	
5674	0	4188	
5675	0	4221	
5676	0	4177	
5677	0	4172	
5678	0	4250	
5679	0	4236	
5680	0	4231	
5681	0	4236	
5682	0	4206	
5683	0	4236	
5684	0	4170	
5685	0	4226	
5686	0	4230	
5687	0	4227	
5688	0	4276	
5689	0	4296	
5690	0	4239	
5691	0	4198	
5692	0	4231	
5693	0	4248	
5694	0	4330	
5695	0	4327	
5696	0	4340	
5697	0	4306	
5698	0	4261	
5699	0	4251	
5700	0	4368	
5701	0	4364	
5702	0	4332	
5703	0	4396	
5704	0	4268	
5705	0	4280	
5706	0	4299	
5707	0	4347	
5708	0	4350	
5709	0	4371	
5710	0	4340	
5711	0	4385	
5712	0	4292	
5713	0	4280	
5714	0	4282	
5715	0	4286	
5716	0	4381	
5717	0	4366	
5718	0	4401	
5719	0	4420	
5720	0	4377	
5721	0	4334	
5722	0	4456	
5723	0	4486	
5724	0	4316	
5725	0	4468	
5726	0	4334	
5727	0	4322	
5728	0	4338	
5729	0	4404	
5730	0	4430	
5731	0	4368	
5732	0	4404	
5733	0	4381	
5734	0	4503	
5735	0	4377	
5736	0	4428	
5737	0	4411	
5738	0	4474	
5739	0	4440	
5740	0	4424	
5741	0	4370	
5742	0	4380	
5743	0	4418	
5744	0	4289	
5745	0	4369	
5746	0	4366	
5747	0	4405	
5748	0	4386	
5749	0	4330	
5750	0	4318	
5751	0	4442	
5752	0	4308	
5753	0	4357	
5754	0	4320	
5755	0	4347	
5756	0	4295	
5757	0	4343	
5758	0	4306	
5759	0	4304	
5760	0	4376	
5761	0	4313	
5762	0	4253	
5763	0	4392	
5764	0	4254	
5765	0	4380	
5766	0	4334	
5767	0	4308	
5768	0	4274	
5769	0	4320	
5770	0	4372	
5771	0	4313	
5772	0	4280	
5773	0	4495	
5774	0	4342	
5775	0	4301	
5776	0	4364	
5777	0	4362	
5778	0	4285	
5779	0	4326	
5780	0	4391	
5781	0	4371	
5782	0	4318	
5783	0	4357	
5784	0	4331	
5785	0	4448	
5786	0	4366	
5787	0	4410	
5788	0	4352	
5789	0	4264	
5790	0	4428	
5791	0	4365	
5792	0	4364	
5793	0	4427	
5794	0	4352	
5795	0	4320	
5796	0	4388	
5797	0	4326	
5798	0	4372	
5799	0	4444	
5800	0	4282	
5801	0	4408	
5802	0	4413	
5803	0	4486	
5804	0	4456	
5805	0	4312	
5806	0	4341	
5807	0	4382	
5808	0	4372	
5809	0	4378	
5810	0	4362	
5811	0	4396	
5812	0	4516	
5813	0	4520	
5814	0	4432	
5815	0	4319	
5816	0	4457	
5817	0	4420	
5818	0	4394	
5819	0	4398	
5820	0	4332	
5821	0	4461	
5822	0	4416	
5823	0	4354	
5824	0	4378	
5825	0	4320	
5826	0	4354	
5827	0	4366	
5828	0	4455	
5829	0	4380	
5830	0	4405	
5831	0	4418	
5832	0	4328	
5833	0	4382	
5834	0	4279	
5835	0	4379	
5836	0	4324	
5837	0	4422	
5838	0	4350	
5839	0	4472	
5840	0	4389	
5841	0	4374	
5842	0	4396	
5843	0	4322	
5844	0	4504	
5845	0	4424	
5846	0	4430	
5847	0	4420	
5848	0	4372	
5849	0	4440	
5850	0	4377	
5851	0	4467	
5852	0	4370	
5853	0	4497	
5854	0	4477	
5855	0	4434	
5856	0	4464	
5857	0	4467	
5858	0	4412	
5859	0	4505	
5860	0	4484	
5861	0	4493	
5862	0	4448	
5863	0	4425	
5864	0	4376	
5865	0	4434	
5866	0	4433	
5867	0	4462	
5868	0	4424	
5869	0	4495	
5870	0	4509	
5871	0	4553	
5872	0	4542	
5873	0	4572	
5874	0	4544	
5875	0	4514	
5876	0	4501	
5877	0	4471	
5878	0	4581	
5879	0	4514	
5880	0	4512	
5881	0	4520	
5882	0	4536	
5883	0	4502	
5884	0	4584	
5885	0	4538	
5886	0	4525	
5887	0	4533	
5888	0	4516	
5889	0	4470	
5890	0	4558	
5891	0	4489	
5892	0	4489	
5893	0	4492	
5894	0	4434	
5895	0	4528	
5896	0	4511	
5897	0	4565	
5898	0	4484	
5899	0	4497	
5900	0	4574	
5901	0	4478	
5902	0	4520	
5903	0	4570	
5904	0	4647	
5905	0	4533	
5906	0	4504	
5907	0	4561	
5908	0	4564	
5909	0	4605	
5910	0	4579	
5911	0	4522	
5912	0	4518	
5913	0	4435	
5914	0	4528	
5915	0	4555	
5916	0	4565	
5917	0	4597	
5918	0	4575	
5919	0	4563	
5920	0	4645	
5921	0	4656	
5922	0	4536	
5923	0	4543	
5924	0	4577	
5925	0	4604	
5926	0	4684	
5927	0	4621	
5928	0	4546	
5929	0	4657	
5930	0	4596	
5931	0	4612	
5932	0	4702	
5933	0	4656	
5934	0	4680	
5935	0	4641	
5936	0	4633	
5937	0	4655	
5938	0	4652	
5939	0	4548	
5940	0	4624	
5941	0	4670	
5942	0	4608	
5943	0	4745	
5944	0	4602	
5945	0	4648	
5946	0	4658	
5947	0	4686	
5948	0	4637	
5949	0	4726	
5950	0	4752	
5951	0	4717	
5952	0	4654	
5953	0	4539	
5954	0	4703	
5955	0	4710	
5956	0	4633	
5957	0	4676	
5958	0	4652	
5959	0	4624	
5960	0	4613	
5961	0	4673	
5962	0	4673	
5963	0	4615	
5964	0	4784	
5965	0	4741	
5966	0	4670	
5967	0	4673	
5968	0	4743	
5969	0	4708	
5970	0	4624	
5971	0	4748	
5972	0	4654	
5973	0	4747	
5974	0	4657	
5975	0	4692	
5976	0	4616	
5977	0	4684	
5978	0	4690	
5979	0	4660	
5980	0	4613	
5981	0	4628	
5982	0	4614	
5983	0	4600	
5984	0	4537	
5985	0	4636	
5986	0	4584	
5987	0	4591	
5988	0	4606	
5989	0	4612	
5990	0	4622	
5991	0	4648	
5992	0	4614	
5993	0	4607	
5994	0	4578	
5995	0	4675	
5996	0	4658	
5997	0	4624	
5998	0	4626	
5999	0	4580	
6000	0	4614	
6001	0	4584	
6002	0	4528	
6003	0	4544	
6004	0	4596	
6005	0	4522	
6006	0	4540	
6007	0	4570	
6008	0	4562	
6009	0	4576	
6010	0	4530	
6011	0	4488	
6012	0	4539	
6013	0	4492	
6014	0	4487	
6015	0	4431	
6016	0	4570	
6017	0	4401	
6018	0	4496	
6019	0	4474	
6020	0	4457	
6021	0	4575	
6022	0	4559	
6023	0	4395	
6024	0	4360	
6025	0	4466	
6026	0	4449	
6027	0	4452	
6028	0	4458	
6029	0	4393	
6030	0	4464	
6031	0	4524	
6032	0	4484	
6033	0	4388	
6034	0	4576	
6035	0	4460	
6036	0	4480	
6037	0	4488	
6038	0	4527	
6039	0	4518	
6040	0	4545	
6041	0	4534	
6042	0	4512	
6043	0	4462	
6044	0	4496	
6045	0	4526	
6046	0	4515	
6047	0	4536	
6048	0	4433	
6049	0	4510	
6050	0	4523	
6051	0	4593	
6052	0	4493	
6053	0	4525	
6054	0	4615	
6055	0	4553	
6056	0	4558	
6057	0	4548	
6058	0	4586	
6059	0	4604	
6060	0	4588	
6061	0	4548	
6062	0	4574	
6063	0	4602	
6064	0	4676	
6065	0	4651	
6066	0	4585	
6067	0	4608	
6068	0	4639	
6069	0	4600	
6070	0	4604	
6071	0	4622	
6072	0	4626	
6073	0	4665	
6074	0	4577	
6075	0	4670	
6076	0	4656	
6077	0	4621	
6078	0	4664	
6079	0	4608	
6080	0	4584	
6081	0	4625	
6082	0	4686	
6083	0	4591	
6084	0	4677	
6085	0	4701	
6086	0	4689	
6087	0	4587	
6088	0	4622	
6089	0	4666	
6090	0	4589	
6091	0	4667	
6092	0	4661	
6093	0	4664	
6094	0	4760	
6095	0	4654	
6096	0	4624	
6097	0	4693	
6098	0	4614	
6099	0	4650	
6100	0	4653	
6101	0	4667	
6102	0	4624	
6103	0	4638	
6104	0	4568	
6105	0	4649	
6106	0	4644	
6107	0	4608	
6108	0	4711	
6109	0	4658	
6110	0	4674	
6111	0	4611	
6112	0	4608	
6113	0	4639	
6114	0	4590	
6115	0	4580	
6116	0	4540	
6117	0	4552	
6118	0	4580	
6119	0	4532	
6120	0	4572	
6121	0	4551	
6122	0	4580	
6123	0	4619	
6124	0	4502	
6125	0	4522	
6126	0	4494	
6127	0	4493	
6128	0	4508	
6129	0	4576	
6130	0	4501	
6131	0	4471	
6132	0	4488	
6133	0	4425	
6134	0	4531	
6135	0	4553	
6136	0	4534	
6137	0	4517	
6138	0	4517	
6139	0	4580	
6140	0	4474	
6141	0	4606	
6142	0	4549	
6143	0	4600	
6144	0	4516	
6145	0	4488	
6146	0	4512	
6147	0	4558	
6148	0	4557	
6149	0	4504	
6150	0	4508	
6151	0	4516	
6152	0	4476	
6153	0	4603	
6154	0	4596	
6155	0	4550	
6156	0	4574	
6157	0	4596	
6158	0	4587	
6159	0	4640	
6160	0	4556	
6161	0	4588	
6162	0	4592	
6163	0	4560	
6164	0	4660	
6165	0	4620	
6166	0	4636	
6167	0	4600	
6168	0	4624	
6169	0	4581	
6170	0	4602	
6171	0	4702	
6172	0	4593	
6173	0	4696	
6174	0	4566	
6175	0	4622	
6176	0	4632	
6177	0	4660	
6178	0	4704	
6179	0	4592	
6180	0	4730	
6181	0	4705	
6182	0	4682	
6183	0	4708	
6184	0	4580	
6185	0	4624	
6186	0	4684	
6187	0	4624	
6188	0	4642	
6189	0	4629	
6190	0	4676	
6191	0	4734	
6192	0	4621	
6193	0	4758	
6194	0	4649	
6195	0	4740	
6196	0	4654	
6197	0	4712	
6198	0	4680	
6199	0	4684	
6200	0	4620	
6201	0	4648	
6202	0	4758	
6203	0	4705	
6204	0	4614	
6205	0	4738	
6206	0	4724	
6207	0	4695	
6208	0	4656	
6209	0	4690	
6210	0	4728	
6211	0	4724	
6212	0	4674	
6213	0	4784	
6214	0	4656	
6215	0	4670	
6216	0	4656	
6217	0	4724	
6218	0	4668	
6219	0	4700	
6220	0	4690	
6221	0	4652	
6222	0	4689	
6223	0	4691	
6224	0	4634	
6225	0	4726	
6226	0	4683	
6227	0	4727	
6228	0	4684	
6229	0	4673	
6230	0	4684	
6231	0	4632	
6232	0	4689	
6233	0	4636	
6234	0	4844	
6235	0	4689	
6236	0	4758	
6237	0	4744	
6238	0	4718	
6239	0	4724	
6240	0	4679	
6241	0	4696	
6242	0	4800	
6243	0	4870	
6244	0	4823	
6245	0	4845	
6246	0	4765	
6247	0	4761	
6248	0	4783	
6249	0	4726	
6250	0	4792	
6251	0	4679	
6252	0	4726	
6253	0	4718	
6254	0	4760	
6255	0	4838	
6256	0	4768	
6257	0	4804	
6258	0	4824	
6259	0	4791	
6260	0	4795	
6261	0	4773	
6262	0	4757	
6263	0	4770	
6264	0	4817	
6265	0	4796	
6266	0	4806	
6267	0	4801	
6268	0	4746	
6269	0	4829	
6270	0	4756	
6271	0	4867	
6272	0	4767	
6273	0	4746	
6274	0	4787	
6275	0	4841	
6276	0	4804	
6277	0	4806	
6278	0	4791	
6279	0	4793	
6280	0	4738	
6281	0	4780	
6282	0	4749	
6283	0	4874	
6284	0	4776	
6285	0	4802	
6286	0	4914	
6287	0	4816	
6288	0	4904	
6289	0	4908	
6290	0	4846	
6291	0	4830	
6292	0	4890	
6293	0	4985	
6294	0	4856	
6295	0	4960	
6296	0	4934	
6297	0	4895	
6298	0	4912	
6299	0	4914	
6300	0	4872	
6301	0	4859	
6302	0	4981	
6303	0	4980	
6304	0	4890	
6305	0	4879	
6306	0	4953	
6307	0	4943	
6308	0	4930	
6309	0	4984	
6310	0	4972	
6311	0	4942	
6312	0	5009	
6313	0	4897	
6314	0	5003	
6315	0	4926	
6316	0	5020	
6317	0	4980	
6318	0	4988	
6319	0	4992	
6320	0	5117	
6321	0	5089	
6322	0	5161	
6323	0	5174	
6324	0	5094	
6325	0	5083	
6326	0	5186	
6327	0	5236	
6328	0	5240	
6329	0	5321	
6330	0	5322	
6331	0	5361	
6332	0	5376	
6333	0	5689	
6334	0	5696	
6335	0	5938	
6336	0	6004	
6337	0	6280	
6338	0	6456	
6339	0	6665	
6340	0	6676	
6341	0	6934	
6342	0	6882	
6343	0	6930	
6344	0	7344	
6345	0	7328	
6346	0	7500	
6347	0	7630	
6348	0	7859	
6349	0	7996	
6350	0	8084	
6351	0	8191	
6352	0	8319	
6353	0	8392	
6354	0	8852	
6355	0	9024	
6356	0	9213	
6357	0	9430	
6358	0	9538	
6359	0	9830	
6360	0	10124	
6361	0	10478	
6362	0	10808	
6363	0	11192	
6364	0	11482	
6365	0	11813	
6366	0	12228	
6367	0	12920	
6368	0	13852	
6369	0	14420	
6370	0	14972	
6371	0	15484	
6372	0	16214	
6373	0	17089	
6374	0	17630	
6375	0	18772	
6376	0	19662	
6377	0	21180	
6378	0	22058	
6379	0	22892	
6380	0	23864	
6381	0	25624	
6382	0	27136	
6383	0	28308	
6384	0	29220	
6385	0	30432	
6386	0	31704	
6387	0	33096	
6388	0	34456	
6389	0	35300	
6390	0	36084	
6391	0	36920	
6392	0	37984	
6393	0	39092	
6394	0	39776	
6395	0	40814	
6396	0	41744	
6397	0	42608	
6398	0	43456	
6399	0	44328	
6400	0	45296	
6401	0	46234	
6402	0	46960	
6403	0	47632	
6404	0	48472	
6405	0	49092	
6406	0	49584	
6407	0	50128	
6408	0	50592	
6409	0	51056	
6410	0	51436	
6411	0	51956	
6412	0	52304	
6413	0	52656	
6414	0	53076	
6415	0	53440	
6416	0	53928	
6417	0	54408	
6418	0	54776	
6419	0	55128	
6420	0	55452	
6421	0	55768	
6422	0	56032	
6423	0	56360	
6424	0	56672	
6425	0	56908	
6426	0	57176	
6427	0	57444	
6428	0	57616	
6429	0	57880	
6430	0	58096	
6431	0	58356	
6432	0	58612	
6433	0	58892	
6434	0	59064	
6435	0	59200	
6436	0	59360	
6437	0	59544	
6438	0	59680	
6439	0	59800	
6440	0	59960	
6441	0	60084	
6442	0	60192	
6443	0	60336	
6444	0	60448	
6445	0	60544	
6446	0	60660	
6447	0	60760	
6448	0	60880	
6449	0	60976	
6450	0	61056	
6451	0	61160	
6452	0	61264	
6453	0	61344	
6454	0	61420	
6455	0	61492	
6456	0	61536	
6457	0	61600	
6458	0	61704	
6459	0	61744	
6460	0	61808	
6461	0	61896	
6462	0	61912	
6463	0	61992	
6464	0	62024	
6465	0	62104	
6466	0	62120	
6467	0	62180	
6468	0	62236	
6469	0	62272	
6470	0	62320	
6471	0	62344	
6472	0	62392	
6473	0	62424	
6474	0	62464	
6475	0	62528	
6476	0	62544	
6477	0	62592	
6478	0	62616	
6479	0	62648	
6480	0	62696	
6481	0	62696	
6482	0	62772	
6483	0	62784	
6484	0	62808	
6485	0	62844	
6486	0	62876	
6487	0	62892	
6488	0	62916	
6489	0	62924	
6490	0	62960	
6491	0	62992	
6492	0	63012	
6493	0	63032	
6494	0	63056	
6495	0	63080	
6496	0	63100	
6497	0	63136	
6498	0	63144	
6499	0	63168	
6500	0	63184	
6501	0	63232	
6502	0	63232	
6503	0	63256	
6504	0	63264	
6505	0	63288	
6506	0	63316	
6507	0	63336	
6508	0	63340	
6509	0	63352	
6510	0	63372	
6511	0	63400	
6512	0	63412	
6513	0	63400	
6514	0	63416	
6515	0	63440	
6516	0	63468	
6517	0	63472	
6518	0	63496	
6519	0	63528	
6520	0	63520	
6521	0	63536	
6522	0	63552	
6523	0	63552	
6524	0	63568	
6525	0	63588	
6526	0	63600	
6527	0	63624	
6528	0	63636	
6529	0	63640	
6530	0	63656	
6531	0	63656	
6532	0	63680	
6533	0	63696	
6534	0	63696	
6535	0	63704	
6536	0	63728	
6537	0	63732	
6538	0	63744	
6539	0	63752	
6540	0	63776	
6541	0	63760	
6542	0	63776	
6543	0	63780	
6544	0	63800	
6545	0	63816	
6546	0	63792	
6547	0	63816	
6548	0	63816	
6549	0	63824	
6550	0	63864	
6551	0	63860	
6552	0	63872	
6553	0	63864	
6554	0	63860	
6555	0	63880	
6556	0	63872	
6557	0	63896	
6558	0	63912	
6559	0	63912	
6560	0	63928	
6561	0	63916	
6562	0	63912	
6563	0	63928	
6564	0	63952	
6565	0	63952	
6566	0	63952	
6567	0	63960	
6568	0	63984	
6569	0	63960	
6570	0	63968	
6571	0	63968	
6572	0	63972	
6573	0	63972	
6574	0	63976	
6575	0	63992	
6576	0	63996	
6577	0	64008	
6578	0	64016	
6579	0	64008	
6580	0	64024	
6581	0	64008	
6582	0	64024	
6583	0	64056	
6584	0	64024	
6585	0	64032	
6586	0	64036	
6587	0	64048	
6588	0	64048	
6589	0	64052	
6590	0	64056	
6591	0	64072	
6592	0	64056	
6593	0	64056	
6594	0	64076	
6595	0	64068	
6596	0	64080	
6597	0	64080	
6598	0	64072	
6599	0	64064	
6600	0	64104	
6601	0	64072	
6602	0	64080	
6603	0	64100	
6604	0	64096	
6605	0	64100	
6606	0	64120	
6607	0	64104	
6608	0	64112	
6609	0	64104	
6610	0	64112	
6611	0	64128	
6612	0	64120	
6613	0	64132	
6614	0	64112	
6615	0	64144	
6616	0	64136	
6617	0	64152	
6618	0	64176	
6619	0	64144	
6620	0	64160	
6621	0	64152	
6622	0	64160	
6623	0	64160	
6624	0	64176	
6625	0	64168	
6626	0	64176	
6627	0	64168	
6628	0	64168	
6629	0	64184	
6630	0	64168	
6631	0	64186	
6632	0	64188	
6633	0	64184	
6634	0	64192	
6635	0	64176	
6636	0	64192	
6637	0	64184	
6638	0	64192	
6639	0	64176	
6640	0	64216	
6641	0	64208	
6642	0	64212	
6643	0	64216	
6644	0	64216	
6645	0	64224	
6646	0	64232	
6647	0	64236	
6648	0	64220	
6649	0	64224	
6650	0	64240	
6651	0	64224	
6652	0	64216	
6653	0	64224	
6654	0	64240	
6655	0	64240	
6656	0	64224	
6657	0	64244	
6658	0	64232	
6659	0	64240	
6660	0	64248	
6661	0	64248	
6662	0	64248	
6663	0	64260	
6664	0	64256	
6665	0	64272	
6666	0	64248	
6667	0	64256	
6668	0	64260	
6669	0	64264	
6670	0	64264	
6671	0	64256	
6672	0	64272	
6673	0	64256	
6674	0	64264	
6675	0	64264	
6676	0	64272	
6677	0	64272	
6678	0	64272	
6679	0	64288	
6680	0	64280	
6681	0	64276	
6682	0	64272	
6683	0	64296	
6684	0	64280	
6685	0	64276	
6686	0	64300	
6687	0	64304	
6688	0	64288	
6689	0	64288	
6690	0	64296	
6691	0	64288	
6692	0	64304	
6693	0	64296	
6694	0	64304	
6695	0	64312	
6696	0	64312	
6697	0	64312	
6698	0	64312	
6699	0	64312	
6700	0	64308	
6701	0	64312	
6702	0	64296	
6703	0	64320	
6704	0	64324	
6705	0	64316	
6706	0	64328	
6707	0	64336	
6708	0	64320	
6709	0	64340	
6710	0	64328	
6711	0	64328	
6712	0	64336	
6713	0	64348	
6714	0	64352	
6715	0	64344	
6716	0	64344	
6717	0	64340	
6718	0	64352	
6719	0	64352	
6720	0	64352	
6721	0	64344	
6722	0	64352	
6723	0	64352	
6724	0	64360	
6725	0	64354	
6726	0	64352	
6727	0	64368	
6728	0	64352	
6729	0	64360	
6730	0	64352	
6731	0	64364	
6732	0	64364	
6733	0	64376	
6734	0	64368	
6735	0	64356	
6736	0	64372	
6737	0	64368	
6738	0	64368	
6739	0	64372	
6740	0	64368	
6741	0	64368	
6742	0	64356	
6743	0	64384	
6744	0	64372	
6745	0	64376	
6746	0	64400	
6747	0	64384	
6748	0	64392	
6749	0	64364	
6750	0	64376	
6751	0	64388	
6752	0	64408	
6753	0	64384	
6754	0	64384	
6755	0	64388	
6756	0	64392	
6757	0	64388	
6758	0	64384	
6759	0	64400	
6760	0	64408	
6761	0	64384	
6762	0	64404	
6763	0	64408	
6764	0	64404	
6765	0	64408	
6766	0	64392	
6767	0	64412	
6768	0	64408	
6769	0	64416	
6770	0	64408	
6771	0	64408	
6772	0	64420	
6773	0	64408	
6774	0	64420	
6775	0	64424	
6776	0	64416	
6777	0	64416	
6778	0	64416	
6779	0	64424	
6780	0	64408	
6781	0	64416	
6782	0	64416	
6783	0	64424	
6784	0	64408	
6785	0	64416	
6786	0	64408	
6787	0	64416	
6788	0	64408	
6789	0	64440	
6790	0	64416	
6791	0	64432	
6792	0	64424	
6793	0	64424	
6794	0	64440	
6795	0	64440	
6796	0	64440	
6797	0	64420	
6798	0	64440	
6799	0	64432	
6800	0	64432	
6801	0	64436	
6802	0	64440	
6803	0	64432	
6804	0	64440	
6805	0	64432	
6806	0	64448	
6807	0	64464	
6808	0	64440	
6809	0	64456	
6810	0	64448	
6811	0	64448	
6812	0	64456	
6813	0	64432	
6814	0	64456	
6815	0	64448	
6816	0	64432	
6817	0	64456	
6818	0	64432	
6819	0	64448	
6820	0	64456	
6821	0	64452	
6822	0	64456	
6823	0	64440	
6824	0	64448	
6825	0	64448	
6826	0	64448	
6827	0	64464	
6828	0	64432	
6829	0	64440	
6830	0	64456	
6831	0	64456	
6832	0	64480	
6833	0	64472	
6834	0	64464	
6835	0	64464	
6836	0	64448	
6837	0	64456	
6838	0	64460	
6839	0	64448	
6840	0	64464	
6841	0	64460	
6842	0	64464	
6843	0	64456	
6844	0	64464	
6845	0	64472	
6846	0	64464	
6847	0	64468	
6848	0	64464	
6849	0	64464	
6850	0	64472	
6851	0	64472	
6852	0	64468	
6853	0	64480	
6854	0	64464	
6855	0	64476	
6856	0	64488	
6857	0	64480	
6858	0	64480	
6859	0	64480	
6860	0	64472	
6861	0	64468	
6862	0	64488	
6863	0	64480	
6864	0	64488	
6865	0	64480	
6866	0	64488	
6867	0	64488	
6868	0	64488	
6869	0	64480	
6870	0	64480	
6871	0	64492	
6872	0	64496	
6873	0	64492	
6874	0	64480	
6875	0	64496	
6876	0	64496	
6877	0	64488	
6878	0	64484	
6879	0	64500	
6880	0	64496	
6881	0	64496	
6882	0	64500	
6883	0	64488	
6884	0	64480	
6885	0	64488	
6886	0	64464	
6887	0	64496	
6888	0	64496	
6889	0	64508	
6890	0	64484	
6891	0	64480	
6892	0	64488	
6893	0	64500	
6894	0	64504	
6895	0	64484	
6896	0	64488	
6897	0	64496	
6898	0	64508	
6899	0	64500	
6900	0	64496	
6901	0	64496	
6902	0	64496	
6903	0	64488	
6904	0	64504	
6905	0	64500	
6906	0	64496	
6907	0	64500	
6908	0	64504	
6909	0	64488	
6910	0	64504	
6911	0	64496	
6912	0	64496	
6913	0	64480	
6914	0	64496	
6915	0	64496	
6916	0	64496	
6917	0	64496	
6918	0	64480	
6919	0	64500	
6920	0	64496	
6921	0	64496	
6922	0	64524	
6923	0	64488	
6924	0	64496	
6925	0	64500	
6926	0	64500	
6927	0	64500	
6928	0	64496	
6929	0	64504	
6930	0	64492	
6931	0	64484	
6932	0	64500	
6933	0	64504	
6934	0	64496	
6935	0	64504	
6936	0	64508	
6937	0	64504	
6938	0	64508	
6939	0	64512	
6940	0	64500	
6941	0	64504	
6942	0	64504	
6943	0	64504	
6944	0	64504	
6945	0	64504	
6946	0	64500	
6947	0	64496	
6948	0	64512	
6949	0	64512	
6950	0	64512	
6951	0	64518	
6952	0	64504	
6953	0	64504	
6954	0	64516	
6955	0	64508	
6956	0	64488	
6957	0	64512	
6958	0	64504	
6959	0	64512	
6960	0	64512	
6961	0	64504	
6962	0	64520	
6963	0	64516	
6964	0	64504	
6965	0	64512	
6966	0	64508	
6967	0	64508	
6968	0	64512	
6969	0	64516	
6970	0	64504	
6971	0	64496	
6972	0	64524	
6973	0	64516	
6974	0	64504	
6975	0	64508	
6976	0	64504	
6977	0	64520	
6978	0	64516	
6979	0	64520	
6980	0	64504	
6981	0	64516	
6982	0	64496	
6983	0	64504	
6984	0	64496	
6985	0	64504	
6986	0	64512	
6987	0	64512	
6988	0	64512	
6989	0	64496	
6990	0	64512	
6991	0	64512	
6992	0	64512	
6993	0	64516	
6994	0	64508	
6995	0	64504	
6996	0	64520	
6997	0	64520	
6998	0	64516	
6999	0	64512	
7000	0	64504	
7001	0	64516	
7002	0	64516	
7003	0	64528	
7004	0	64512	
7005	0	64496	
7006	0	64540	
7007	0	64516	
7008	0	64516	
7009	0	64504	
7010	0	64508	
7011	0	64512	
7012	0	64516	
7013	0	64528	
7014	0	64512	
7015	0	64512	
7016	0	64512	
7017	0	64496	
7018	0	64520	
7019	0	64520	
7020	0	64512	
7021	0	64512	
7022	0	64520	
7023	0	64512	
7024	0	64504	
7025	0	64520	
7026	0	64508	
7027	0	64504	
7028	0	64516	
7029	0	64504	
7030	0	64512	
7031	0	64520	
7032	0	64504	
7033	0	64520	
7034	0	64520	
7035	0	64528	
7036	0	64512	
7037	0	64508	
7038	0	64512	
7039	0	64528	
7040	0	64516	
7041	0	64504	
7042	0	64500	
7043	0	64512	
7044	0	64504	
7045	0	64520	
7046	0	64512	
7047	0	64508	
7048	0	64520	
7049	0	64512	
7050	0	64516	
7051	0	64508	
7052	0	64520	
7053	0	64528	
7054	0	64528	
7055	0	64540	
7056	0	64512	
7057	0	64512	
7058	0	64520	
7059	0	64520	
7060	0	64512	
7061	0	64528	
7062	0	64528	
7063	0	64544	
7064	0	64536	
7065	0	64516	
7066	0	64520	
7067	0	64512	
7068	0	64520	
7069	0	64520	
7070	0	64512	
7071	0	64520	
7072	0	64520	
7073	0	64524	
7074	0	64520	
7075	0	64528	
7076	0	64528	
7077	0	64524	
7078	0	64520	
7079	0	64528	
7080	0	64520	
7081	0	64512	
7082	0	64532	
7083	0	64516	
7084	0	64532	
7085	0	64524	
7086	0	64528	
7087	0	64528	
7088	0	64544	
7089	0	64528	
7090	0	64528	
7091	0	64536	
7092	0	64528	
7093	0	64520	
7094	0	64536	
7095	0	64504	
7096	0	64512	
7097	0	64512	
7098	0	64520	
7099	0	64536	
7100	0	64528	
7101	0	64532	
7102	0	64540	
7103	0	64520	
7104	0	64504	
7105	0	64520	
7106	0	64520	
7107	0	64536	
7108	0	64528	
7109	0	64512	
7110	0	64528	
7111	0	64524	
7112	0	64528	
7113	0	64552	
7114	0	64528	
7115	0	64504	
7116	0	64532	
7117	0	64516	
7118	0	64512	
7119	0	64520	
7120	0	64520	
7121	0	64540	
7122	0	64516	
7123	0	64512	
7124	0	64536	
7125	0	64528	
7126	0	64508	
7127	0	64532	
7128	0	64512	
7129	0	64520	
7130	0	64528	
7131	0	64520	
7132	0	64528	
7133	0	64540	
7134	0	64540	
7135	0	64524	
7136	0	64512	
7137	0	64532	
7138	0	64520	
7139	0	64536	
7140	0	64528	
7141	0	64516	
7142	0	64532	
7143	0	64532	
7144	0	64540	
7145	0	64520	
7146	0	64528	
7147	0	64536	
7148	0	64516	
7149	0	64536	
7150	0	64536	
7151	0	64524	
7152	0	64528	
7153	0	64528	
7154	0	64528	
7155	0	64520	
7156	0	64520	
7157	0	64536	
7158	0	64528	
7159	0	64520	
7160	0	64532	
7161	0	64512	
7162	0	64528	
7163	0	64544	
7164	0	64528	
7165	0	64520	
7166	0	64528	
7167	0	64536	
7168	0	64528	
7169	0	64528	
7170	0	64520	
7171	0	64520	
7172	0	64520	
7173	0	64528	
7174	0	64516	
7175	0	64536	
7176	0	64528	
7177	0	64528	
7178	0	64528	
7179	0	64528	
7180	0	64528	
7181	0	64524	
7182	0	64516	
7183	0	64512	
7184	0	64532	
7185	0	64536	
7186	0	64524	
7187	0	64532	
7188	0	64532	
7189	0	64536	
7190	0	64544	
7191	0	64516	
7192	0	64528	
7193	0	64528	
7194	0	64532	
7195	0	64536	
7196	0	64528	
7197	0	64532	
7198	0	64512	
7199	0	64532	
7200	0	64532	
7201	0	64528	
7202	0	64512	
7203	0	64528	
7204	0	64528	
7205	0	64528	
7206	0	64528	
7207	0	64528	
7208	0	64524	
7209	0	64528	
7210	0	64532	
7211	0	64528	
7212	0	64512	
7213	0	64504	
7214	0	64532	
7215	0	64528	
7216	0	64532	
7217	0	64516	
7218	0	64528	
7219	0	64536	
7220	0	64552	
7221	0	64524	
7222	0	64520	
7223	0	64528	
7224	0	64512	
7225	0	64536	
7226	0	64520	
7227	0	64532	
7228	0	64536	
7229	0	64528	
7230	0	64544	
7231	0	64524	
7232	0	64536	
7233	0	64528	
7234	0	64536	
7235	0	64520	
7236	0	64524	
7237	0	64512	
7238	0	64544	
7239	0	64540	
7240	0	64528	
7241	0	64540	
7242	0	64536	
7243	0	64512	
7244	0	64520	
7245	0	64524	
7246	0	64528	
7247	0	64520	
7248	0	64520	
7249	0	64520	
7250	0	64520	
7251	0	64536	
7252	0	64528	
7253	0	64524	
7254	0	64516	
7255	0	64536	
7256	0	64512	
7257	0	64512	
7258	0	64552	
7259	0	64528	
7260	0	64528	
7261	0	64528	
7262	0	64528	
7263	0	64528	
7264	0	64512	
7265	0	64520	
7266	0	64536	
7267	0	64516	
7268	0	64532	
7269	0	64528	
7270	0	64528	
7271	0	64520	
7272	0	64544	
7273	0	64540	
7274	0	64528	
7275	0	64504	
7276	0	64520	
7277	0	64532	
7278	0	64516	
7279	0	64528	
7280	0	64528	
7281	0	64516	
7282	0	64520	
7283	0	64528	
7284	0	64528	
7285	0	64512	
7286	0	64512	
7287	0	64552	
7288	0	64528	
7289	0	64528	
7290	0	64520	
7291	0	64532	
7292	0	64496	
7293	0	64504	
7294	0	64528	
7295	0	64584	
7296	0	64512	
7297	0	64520	
7298	0	64496	
7299	0	64536	
7300	0	64528	
7301	0	64516	
7302	0	64528	
7303	0	64532	
7304	0	64520	
7305	0	64512	
7306	0	64512	
7307	0	64516	
7308	0	64536	
7309	0	64516	
7310	0	64536	
7311	0	64520	
7312	0	64512	
7313	0	64520	
7314	0	64532	
7315	0	64536	
7316	0	64528	
7317	0	64512	
7318	0	64532	
7319	0	64520	
7320	0	64512	
7321	0	64536	
7322	0	64528	
7323	0	64504	
7324	0	64516	
7325	0	64524	
7326	0	64532	
7327	0	64512	
7328	0	64508	
7329	0	64528	
7330	0	64520	
7331	0	64544	
7332	0	64544	
7333	0	64520	
7334	0	64520	
7335	0	64524	
7336	0	64524	
7337	0	64516	
7338	0	64528	
7339	0	64520	
7340	0	64528	
7341	0	64516	
7342	0	64520	
7343	0	64520	
7344	0	64528	
7345	0	64532	
7346	0	64520	
7347	0	64512	
7348	0	64524	
7349	0	64528	
7350	0	64520	
7351	0	64504	
7352	0	64528	
7353	0	64508	
7354	0	64520	
7355	0	64520	
7356	0	64528	
7357	0	64524	
7358	0	64524	
7359	0	64528	
7360	0	64516	
7361	0	64504	
7362	0	64528	
7363	0	64536	
7364	0	64516	
7365	0	64528	
7366	0	64516	
7367	0	64512	
7368	0	64504	
7369	0	64520	
7370	0	64516	
7371	0	64524	
7372	0	64512	
7373	0	64520	
7374	0	64520	
7375	0	64528	
7376	0	64520	
7377	0	64520	
7378	0	64520	
7379	0	64512	
7380	0	64512	
7381	0	64520	
7382	0	64520	
7383	0	64520	
7384	0	64512	
7385	0	64496	
7386	0	64512	
7387	0	64520	
7388	0	64512	
7389	0	64508	
7390	0	64520	
7391	0	64532	
7392	0	64512	
7393	0	64512	
7394	0	64520	
7395	0	64496	
7396	0	64504	
7397	0	64516	
7398	0	64512	
7399	0	64504	
7400	0	64496	
7401	0	64496	
7402	0	64516	
7403	0	64516	
7404	0	64516	
7405	0	64520	
7406	0	64504	
7407	0	64496	
7408	0	64504	
7409	0	64512	
7410	0	64496	
7411	0	64504	
7412	0	64500	
7413	0	64492	
7414	0	64496	
7415	0	64496	
7416	0	64496	
7417	0	64504	
7418	0	64504	
7419	0	64500	
7420	0	64500	
7421	0	64504	
7422	0	64496	
7423	0	64500	
7424	0	64484	
7425	0	64480	
7426	0	64496	
7427	0	64480	
7428	0	64488	
7429	0	64484	
7430	0	64496	
7431	0	64464	
7432	0	64496	
7433	0	64488	
7434	0	64484	
7435	0	64472	
7436	0	64480	
7437	0	64472	
7438	0	64488	
7439	0	64472	
7440	0	64492	
7441	0	64480	
7442	0	64484	
7443	0	64480	
7444	0	64480	
7445	0	64464	
7446	0	64480	
7447	0	64464	
7448	0	64496	
7449	0	64488	
7450	0	64480	
7451	0	64480	
7452	0	64464	
7453	0	64468	
7454	0	64480	
7455	0	64472	
7456	0	64464	
7457	0	64452	
7458	0	64456	
7459	0	64472	
7460	0	64464	
7461	0	64472	
7462	0	64456	
7463	0	64460	
7464	0	64452	
7465	0	64448	
7466	0	64448	
7467	0	64452	
7468	0	64432	
7469	0	64448	
7470	0	64448	
7471	0	64448	
7472	0	64448	
7473	0	64456	
7474	0	64440	
7475	0	64432	
7476	0	64444	
7477	0	64440	
7478	0	64432	
7479	0	64440	
7480	0	64440	
7481	0	64416	
7482	0	64432	
7483	0	64440	
7484	0	64416	
7485	0	64428	
7486	0	64432	
7487	0	64440	
7488	0	64424	
7489	0	64416	
7490	0	64428	
7491	0	64412	
7492	0	64416	
7493	0	64416	
7494	0	64408	
7495	0	64420	
7496	0	64416	
7497	0	64408	
7498	0	64408	
7499	0	64396	
7500	0	64412	
7501	0	64392	
7502	0	64400	
7503	0	64408	
7504	0	64392	
7505	0	64400	
7506	0	64388	
7507	0	64384	
7508	0	64384	
7509	0	64384	
7510	0	64400	
7511	0	64372	
7512	0	64368	
7513	0	64380	
7514	0	64372	
7515	0	64372	
7516	0	64368	
7517	0	64360	
7518	0	64356	
7519	0	64360	
7520	0	64352	
7521	0	64336	
7522	0	64332	
7523	0	64344	
7524	0	64328	
7525	0	64336	
7526	0	64344	
7527	0	64336	
7528	0	64344	
7529	0	64340	
7530	0	64348	
7531	0	64324	
7532	0	64328	
7533	0	64328	
7534	0	64328	
7535	0	64328	
7536	0	64328	
7537	0	64304	
7538	0	64304	
7539	0	64296	
7540	0	64312	
7541	0	64296	
7542	0	64276	
7543	0	64304	
7544	0	64288	
7545	0	64296	
7546	0	64304	
7547	0	64316	
7548	0	64296	
7549	0	64296	
7550	0	64292	
7551	0	64288	
7552	0	64280	
7553	0	64272	
7554	0	64272	
7555	0	64280	
7556	0	64280	
7557	0	64264	
7558	0	64276	
7559	0	64264	
7560	0	64256	
7561	0	64264	
7562	0	64248	
7563	0	64260	
7564	0	64248	
7565	0	64240	
7566	0	64240	
7567	0	64224	
7568	0	64232	
7569	0	64216	
7570	0	64248	
7571	0	64224	
7572	0	64224	
7573	0	64224	
7574	0	64224	
7575	0	64200	
7576	0	64208	
7577	0	64192	
7578	0	64192	
7579	0	64184	
7580	0	64192	
7581	0	64176	
7582	0	64168	
7583	0	64176	
7584	0	64180	
7585	0	64184	
7586	0	64176	
7587	0	64160	
7588	0	64160	
7589	0	64144	
7590	0	64144	
7591	0	64136	
7592	0	64144	
7593	0	64122	
7594	0	64148	
7595	0	64104	
7596	0	64124	
7597	0	64112	
7598	0	64112	
7599	0	64096	
7600	0	64072	
7601	0	64072	
7602	0	64072	
7603	0	64064	
7604	0	64048	
7605	0	64040	
7606	0	64048	
7607	0	64040	
7608	0	64024	
7609	0	64016	
7610	0	64024	
7611	0	64000	
7612	0	64000	
7613	0	63996	
7614	0	63976	
7615	0	63984	
7616	0	63952	
7617	0	63940	
7618	0	63944	
7619	0	63936	
7620	0	63896	
7621	0	63912	
7622	0	63896	
7623	0	63892	
7624	0	63856	
7625	0	63872	
7626	0	63856	
7627	0	63824	
7628	0	63816	
7629	0	63824	
7630	0	63808	
7631	0	63800	
7632	0	63776	
7633	0	63784	
7634	0	63768	
7635	0	63744	
7636	0	63752	
7637	0	63744	
7638	0	63712	
7639	0	63700	
7640	0	63696	
7641	0	63664	
7642	0	63672	
7643	0	63648	
7644	0	63656	
7645	0	63632	
7646	0	63640	
7647	0	63600	
7648	0	63600	
7649	0	63568	
7650	0	63560	
7651	0	63544	
7652	0	63536	
7653	0	63512	
7654	0	63512	
7655	0	63488	
7656	0	63480	
7657	0	63464	
7658	0	63444	
7659	0	63424	
7660	0	63416	
7661	0	63400	
7662	0	63396	
7663	0	63368	
7664	0	63344	
7665	0	63328	
7666	0	63312	
7667	0	63296	
7668	0	63300	
7669	0	63288	
7670	0	63248	
7671	0	63240	
7672	0	63216	
7673	0	63200	
7674	0	63176	
7675	0	63160	
7676	0	63144	
7677	0	63108	
7678	0	63092	
7679	0	63068	
7680	0	63048	
7681	0	63024	
7682	0	62996	
7683	0	62976	
7684	0	62968	
7685	0	62920	
7686	0	62904	
7687	0	62872	
7688	0	62856	
7689	0	62840	
7690	0	62816	
7691	0	62816	
7692	0	62772	
7693	0	62744	
7694	0	62724	
7695	0	62676	
7696	0	62660	
7697	0	62628	
7698	0	62608	
7699	0	62576	
7700	0	62552	
7701	0	62520	
7702	0	62496	
7703	0	62464	
7704	0	62400	
7705	0	62368	
7706	0	62360	
7707	0	62308	
7708	0	62288	
7709	0	62240	
7710	0	62236	
7711	0	62192	
7712	0	62144	
7713	0	62120	
7714	0	62088	
7715	0	62044	
7716	0	62000	
7717	0	61976	
7718	0	61936	
7719	0	61880	
7720	0	61828	
7721	0	61784	
7722	0	61736	
7723	0	61704	
7724	0	61640	
7725	0	61584	
7726	0	61572	
7727	0	61500	
7728	0	61420	
7729	0	61382	
7730	0	61308	
7731	0	61220	
7732	0	61176	
7733	0	61136	
7734	0	61032	
7735	0	60960	
7736	0	60896	
7737	0	60836	
7738	0	60768	
7739	0	60696	
7740	0	60624	
7741	0	60556	
7742	0	60488	
7743	0	60440	
7744	0	60360	
7745	0	60308	
7746	0	60248	
7747	0	60184	
7748	0	60112	
7749	0	60064	
7750	0	59984	
7751	0	59908	
7752	0	59792	
7753	0	59720	
7754	0	59640	
7755	0	59552	
7756	0	59464	
7757	0	59368	
7758	0	59296	
7759	0	59188	
7760	0	59088	
7761	0	59000	
7762	0	58928	
7763	0	58824	
7764	0	58720	
7765	0	58628	
7766	0	58472	
7767	0	58376	
7768	0	58220	
7769	0	58088	
7770	0	58008	
7771	0	57880	
7772	0	57792	
7773	0	57692	
7774	0	57544	
7775	0	57442	
7776	0	57320	
7777	0	57220	
7778	0	57060	
7779	0	56988	
7780	0	56868	
7781	0	56692	
7782	0	56584	
7783	0	56440	
7784	0	56304	
7785	0	56128	
7786	0	55992	
7787	0	55824	
7788	0	55660	
7789	0	55568	
7790	0	55428	
7791	0	55316	
7792	0	55196	
7793	0	55012	
7794	0	54888	
7795	0	54792	
7796	0	54580	
7797	0	54424	
7798	0	54296	
7799	0	54144	
7800	0	54048	
7801	0	53912	
7802	0	53824	
7803	0	53608	
7804	0	53444	
7805	0	53304	
7806	0	53168	
7807	0	53072	
7808	0	52960	
7809	0	52744	
7810	0	52596	
7811	0	52456	
7812	0	52360	
7813	0	52240	
7814	0	52100	
7815	0	52012	
7816	0	51880	
7817	0	51836	
7818	0	51648	
7819	0	51480	
7820	0	51312	
7821	0	51172	
7822	0	51036	
7823	0	50888	
7824	0	50832	
7825	0	50680	
7826	0	50524	
7827	0	50404	
7828	0	50272	
7829	0	50140	
7830	0	50028	
7831	0	49924	
7832	0	49776	
7833	0	49720	
7834	0	49616	
7835	0	49584	
7836	0	49484	
7837	0	49456	
7838	0	49328	
7839	0	49268	
7840	0	49240	
7841	0	49152	
7842	0	49096	
7843	0	49016	
7844	0	48888	
7845	0	48860	
7846	0	48744	
7847	0	48584	
7848	0	48488	
7849	0	48392	
7850	0	48304	
7851	0	48284	
7852	0	48144	
7853	0	48080	
7854	0	47988	
7855	0	47908	
7856	0	47840	
7857	0	47760	
7858	0	47680	
7859	0	47576	
7860	0	47568	
7861	0	47524	
7862	0	47436	
7863	0	47380	
7864	0	47344	
7865	0	47272	
7866	0	47224	
7867	0	47128	
7868	0	47024	
7869	0	46954	
7870	0	46744	
7871	0	46688	
7872	0	46616	
7873	0	46512	
7874	0	46424	
7875	0	46304	
7876	0	46240	
7877	0	46120	
7878	0	45976	
7879	0	45920	
7880	0	45800	
7881	0	45732	
7882	0	45612	
7883	0	45536	
7884	0	45440	
7885	0	45220	
7886	0	45096	
7887	0	45024	
7888	0	44868	
7889	0	44752	
7890	0	44608	
7891	0	44500	
7892	0	44352	
7893	0	44264	
7894	0	44100	
7895	0	43924	
7896	0	43832	
7897	0	43748	
7898	0	43624	
7899	0	43440	
7900	0	43272	
7901	0	43048	
7902	0	42816	
7903	0	42624	
7904	0	42384	
7905	0	42112	
7906	0	41848	
7907	0	41628	
7908	0	41528	
7909	0	41378	
7910	0	41216	
7911	0	40956	
7912	0	40680	
7913	0	40288	
7914	0	40104	
7915	0	39844	
7916	0	39656	
7917	0	39496	
7918	0	39224	
7919	0	39100	
7920	0	38904	
7921	0	38752	
7922	0	38540	
7923	0	38276	
7924	0	38016	
7925	0	37800	
7926	0	37592	
7927	0	37328	
7928	0	37140	
7929	0	36916	
7930	0	36608	
7931	0	36340	
7932	0	36228	
7933	0	35968	
7934	0	35672	
7935	0	35312	
7936	0	35032	
7937	0	34808	
7938	0	34668	
7939	0	34376	
7940	0	34040	
7941	0	33752	
7942	0	33360	
7943	0	32756	
7944	0	32144	
7945	0	31684	
7946	0	31544	
7947	0	31216	
7948	0	31044	
7949	0	30848	
7950	0	30576	
7951	0	30196	
7952	0	29900	
7953	0	29522	
7954	0	28940	
7955	0	28306	
7956	0	27912	
7957	0	27472	
7958	0	27148	
7959	0	26628	
7960	0	26268	
7961	0	25656	
7962	0	25120	
7963	0	24552	
7964	0	23952	
7965	0	23312	
7966	0	22376	
7967	0	21602	
7968	0	20948	
7969	0	20588	
7970	0	19980	
7971	0	19722	
7972	0	18988	
7973	0	17730	
7974	0	17186	
7975	0	17076	
7976	0	16136	
7977	0	15628	
7978	0	15322	
7979	0	14872	
7980	0	14372	
7981	0	14017	
7982	0	13684	
7983	0	13340	
7984	0	12613	
7985	0	12061	
7986	0	11182	
7987	0	10528	
7988	0	10008	
7989	0	9832	
7990	0	9520	
7991	0	9292	
7992	0	8595	
7993	0	7793	
7994	0	7561	
7995	0	7356	
7996	0	6929	
7997	0	6357	
7998	0	5674	
7999	0	5616	
8000	0	5509	
8001	0	5360	
8002	0	5460	
8003	0	5520	
8004	0	5410	
8005	0	5198	
8006	0	5251	
8007	0	5088	
8008	0	5002	
8009	0	4870	
8010	0	4806	
8011	0	4147	
8012	0	3238	
8013	0	2415	
8014	0	1612	
8015	0	56	
8016	0	13	
8017	0	122	
8018	0	794	
8019	0	750	
8020	0	803	
8021	0	732	
8022	0	604	
8023	0	12	
8024	0	11	
8025	0	14	
8026	0	13	
8027	0	13	
8028	0	12	
8029	0	12	
8030	0	11	
8031	0	11	
8032	0	13	
8033	0	10	
8034	0	12	
8035	0	13	
8036	0	12	
8037	0	10	
8038	0	11	
8039	0	12	
8040	0	12	
8041	0	10	
8042	0	11	
8043	0	12	
8044	0	11	
8045	0	13	
8046	0	12	
8047	0	12	
8048	0	12	
8049	0	10	
8050	0	12	
8051	0	13	
8052	0	11	
8053	0	11	
8054	0	12	
8055	0	13	
8056	0	12	
8057	0	12	
8058	0	12	
8059	0	13	
8060	0	12	
8061	0	12	
8062	0	13	
8063	0	11	
8064	0	12	
8065	0	12	
8066	0	10	
8067	0	12	
8068	0	10	
8069	0	13	
8070	0	12	
8071	0	11	
8072	0	12	
8073	0	11	
8074	0	12	
8075	0	12	
8076	0	12	
8077	0	12	
8078	0	13	
8079	0	12	
8080	0	11	
8081	0	13	
8082	0	12	
8083	0	12	
8084	0	11	
8085	0	12	
8086	0	11	
8087	0	13	
8088	0	11	
8089	0	12	
8090	0	13	
8091	0	12	
8092	0	12	
8093	0	11	
8094	0	11	
8095	0	12	
8096	0	13	
8097	0	9	
8098	0	10	
8099	0	11	
8100	0	12	
8101	0	11	
8102	0	12	
8103	0	11	
8104	0	12	
8105	0	11	
8106	0	11	
8107	0	12	
8108	0	11	
8109	0	13	
8110	0	11	
8111	0	12	
8112	0	12	
8113	0	11	
8114	0	13	
8115	0	12	
8116	0	12	
8117	0	12	
8118	0	10	
8119	0	11	
8120	0	12	
8121	0	11	
8122	0	12	
8123	0	13	
8124	0	12	
8125	0	12	
8126	0	12	
8127	0	12	
8128	0	12	
8129	0	12	
8130	0	11	
8131	0	12	
8132	0	12	
8133	0	12	
8134	0	12	
8135	0	12	
8136	0	13	
8137	0	13	
8138	0	13	
8139	0	11	
8140	0	11	
8141	0	12	
8142	0	12	
8143	0	12	
8144	0	11	
8145	0	12	
8146	0	12	
8147	0	12	
8148	0	11	
8149	0	12	
8150	0	12	
8151	0	12	
8152	0	11	
8153	0	12	
8154	0	12	
8155	0	12	
8156	0	12	
8157	0	11	
8158	0	12	
8159	0	12	
8160	0	11	
8161	0	11	
8162	0	13	
8163	0	12	
8164	0	12	
8165	0	11	
8166	0	12	
8167	0	12	
8168	0	13	
8169	0	12	
8170	0	12	
8171	0	11	
8172	0	12	
8173	0	12	
8174	0	11	
8175	0	11	
8176	0	12	
8177	0	12	
8178	0	12	
8179	0	9	
8180	0	12	
8181	0	11	
8182	0	12	
8183	0	12	
8184	0	13	
8185	0	12	
8186	0	11	
8187	0	11	
8188	0	12	
8189	0	12	
8190	0	12	
8191	0	12	
8192	0	11	
8193	0	12	
8194	0	12	
8195	0	13	
8196	0	13	
8197	0	12	
8198	0	11	
8199	0	12	
8200	0	12	
8201	0	11	
8202	0	12	
8203	0	12	
8204	0	14	
8205	0	13	
8206	0	12	
8207	0	13	
8208	0	12	
8209	0	13	
8210	0	11	
8211	0	12	
8212	0	11	
8213	0	12	
8214	0	12	
8215	0	13	
8216	0	11	
8217	0	12	
8218	0	11	
8219	0	13	
8220	0	11	
